timestamp,value,is_anomaly
0,0.0,0
1,0.0,0
2,0.0,0
3,0.0,0
4,0.0,0
5,0.0,0
6,0.0,0
7,0.0,0
8,0.0,0
9,0.0,0
10,-1.0,0
11,-6.0,0
12,-5.0,0
13,6.0,0
14,27.0,0
15,47.0,0
16,57.0,0
17,56.0,0
18,43.0,0
19,24.0,0
20,8.0,0
21,-1.0,0
22,-5.0,0
23,-9.0,0
24,-11.0,0
25,-11.0,0
26,-11.0,0
27,-11.0,0
28,-11.0,0
29,-11.0,0
30,-10.0,0
31,-9.0,0
32,-9.0,0
33,-8.0,0
34,-8.0,0
35,-7.0,0
36,-7.0,0
37,-7.0,0
38,-6.0,0
39,-6.0,0
40,-6.0,0
41,-6.0,0
42,-6.0,0
43,-6.0,0
44,-7.0,0
45,-7.0,0
46,-7.0,0
47,-7.0,0
48,-7.0,0
49,-8.0,0
50,-8.0,0
51,-8.0,0
52,-8.0,0
53,-8.0,0
54,-7.0,0
55,-7.0,0
56,-7.0,0
57,-7.0,0
58,-6.0,0
59,-6.0,0
60,-6.0,0
61,-5.0,0
62,-3.0,0
63,-3.0,0
64,-2.0,0
65,-2.0,0
66,-1.0,0
67,-1.0,0
68,-1.0,0
69,-1.0,0
70,0.0,0
71,0.0,0
72,0.0,0
73,0.0,0
74,0.0,0
75,0.0,0
76,0.0,0
77,0.0,0
78,0.0,0
79,0.0,0
80,0.0,0
81,0.0,0
82,2.0,0
83,2.0,0
84,3.0,0
85,3.0,0
86,3.0,0
87,3.0,0
88,4.0,0
89,5.0,0
90,5.0,0
91,5.0,0
92,5.0,0
93,5.0,0
94,5.0,0
95,6.0,0
96,6.0,0
97,6.0,0
98,6.0,0
99,6.0,0
100,6.0,0
101,6.0,0
102,6.0,0
103,6.0,0
104,4.0,0
105,1.0,0
106,2.0,0
107,14.0,0
108,36.0,0
109,55.0,0
110,65.0,0
111,65.0,0
112,53.0,0
113,34.0,0
114,16.0,0
115,5.0,0
116,0.0,0
117,-1.0,0
118,-2.0,0
119,-2.0,0
120,-2.0,0
121,-2.0,0
122,-2.0,0
123,-2.0,0
124,-1.0,0
125,-1.0,0
126,-1.0,0
127,-1.0,0
128,-1.0,0
129,-1.0,0
130,-1.0,0
131,0.0,0
132,0.0,0
133,0.0,0
134,0.0,0
135,0.0,0
136,1.0,0
137,1.0,0
138,1.0,0
139,1.0,0
140,0.0,0
141,0.0,0
142,0.0,0
143,0.0,0
144,0.0,0
145,0.0,0
146,0.0,0
147,0.0,0
148,0.0,0
149,0.0,0
150,0.0,0
151,1.0,0
152,1.0,0
153,1.0,0
154,1.0,0
155,1.0,0
156,1.0,0
157,1.0,0
158,1.0,0
159,1.0,0
160,0.0,0
161,0.0,0
162,0.0,0
163,0.0,0
164,1.0,0
165,1.0,0
166,1.0,0
167,0.0,0
168,0.0,0
169,0.0,0
170,0.0,0
171,0.0,0
172,0.0,0
173,0.0,0
174,0.0,0
175,1.0,0
176,2.0,0
177,2.0,0
178,2.0,0
179,2.0,0
180,0.0,0
181,0.0,0
182,1.0,0
183,1.0,0
184,1.0,0
185,1.0,0
186,1.0,0
187,1.0,0
188,1.0,0
189,1.0,0
190,1.0,0
191,1.0,0
192,0.0,0
193,0.0,0
194,0.0,0
195,0.0,0
196,0.0,0
197,-1.0,0
198,-4.0,0
199,0.0,0
200,16.0,0
201,39.0,0
202,56.0,0
203,61.0,0
204,56.0,0
205,39.0,0
206,19.0,0
207,3.0,0
208,-3.0,0
209,-6.0,0
210,-10.0,0
211,-11.0,0
212,-11.0,0
213,-11.0,0
214,-11.0,0
215,-11.0,0
216,-11.0,0
217,-11.0,0
218,-11.0,0
219,-11.0,0
220,-10.0,0
221,-8.0,0
222,-8.0,0
223,-8.0,0
224,-8.0,0
225,-8.0,0
226,-7.0,0
227,-7.0,0
228,-7.0,0
229,-7.0,0
230,-7.0,0
231,-7.0,0
232,-7.0,0
233,-7.0,0
234,-7.0,0
235,-7.0,0
236,-7.0,0
237,-8.0,0
238,-7.0,0
239,-7.0,0
240,-7.0,0
241,-7.0,0
242,-6.0,0
243,-6.0,0
244,-6.0,0
245,-5.0,0
246,-5.0,0
247,-6.0,0
248,-6.0,0
249,-6.0,0
250,-6.0,0
251,-6.0,0
252,-6.0,0
253,-5.0,0
254,-5.0,0
255,-4.0,0
256,-4.0,0
257,-4.0,0
258,-3.0,0
259,-3.0,0
260,-3.0,0
261,-3.0,0
262,-3.0,0
263,-4.0,0
264,-5.0,0
265,-5.0,0
266,-3.0,0
267,-2.0,0
268,-1.0,0
269,-1.0,0
270,-1.0,0
271,-1.0,0
272,-1.0,0
273,-1.0,0
274,-1.0,0
275,-1.0,0
276,-1.0,0
277,-1.0,0
278,-1.0,0
279,-1.0,0
280,0.0,0
281,0.0,0
282,-1.0,0
283,0.0,0
284,0.0,0
285,-1.0,0
286,-1.0,0
287,-1.0,0
288,-1.0,0
289,-1.0,0
290,-3.0,0
291,-8.0,0
292,-1.0,0
293,14.0,0
294,37.0,0
295,54.0,0
296,59.0,0
297,54.0,0
298,36.0,0
299,16.0,0
300,0.0,0
301,-4.0,0
302,-8.0,0
303,-10.0,0
304,-11.0,0
305,-12.0,0
306,-11.0,0
307,-11.0,0
308,-11.0,0
309,-11.0,0
310,-11.0,0
311,-11.0,0
312,-11.0,0
313,-9.0,0
314,-8.0,0
315,-8.0,0
316,-8.0,0
317,-7.0,0
318,-7.0,0
319,-8.0,0
320,-7.0,0
321,-7.0,0
322,-7.0,0
323,-7.0,0
324,-7.0,0
325,-7.0,0
326,-7.0,0
327,-7.0,0
328,-8.0,0
329,-8.0,0
330,-8.0,0
331,-8.0,0
332,-7.0,0
333,-7.0,0
334,-7.0,0
335,-7.0,0
336,-7.0,0
337,-6.0,0
338,-5.0,0
339,-5.0,0
340,-6.0,0
341,-6.0,0
342,-6.0,0
343,-6.0,0
344,-6.0,0
345,-6.0,0
346,-6.0,0
347,-6.0,0
348,-6.0,0
349,-5.0,0
350,-4.0,0
351,-4.0,0
352,-4.0,0
353,-3.0,0
354,-3.0,0
355,-3.0,0
356,-4.0,0
357,-4.0,0
358,-5.0,0
359,-5.0,0
360,-3.0,0
361,-2.0,0
362,-1.0,0
363,-1.0,0
364,-1.0,0
365,-1.0,0
366,-1.0,0
367,-1.0,0
368,0.0,0
369,0.0,0
370,0.0,0
371,-1.0,0
372,0.0,0
373,0.0,0
374,0.0,0
375,0.0,0
376,0.0,0
377,0.0,0
378,0.0,0
379,0.0,0
380,-1.0,0
381,-1.0,0
382,-1.0,0
383,-1.0,0
384,-4.0,0
385,-9.0,0
386,0.0,0
387,17.0,0
388,40.0,0
389,55.0,0
390,58.0,0
391,50.0,0
392,32.0,0
393,13.0,0
394,1.0,0
395,-4.0,0
396,-8.0,0
397,-10.0,0
398,-11.0,0
399,-12.0,0
400,-12.0,0
401,-11.0,0
402,-11.0,0
403,-11.0,0
404,-9.0,0
405,-9.0,0
406,-8.0,0
407,-8.0,0
408,-8.0,0
409,-8.0,0
410,-7.0,0
411,-7.0,0
412,-6.0,0
413,-6.0,0
414,-6.0,0
415,-6.0,0
416,-6.0,0
417,-7.0,0
418,-6.0,0
419,-6.0,0
420,-7.0,0
421,-7.0,0
422,-7.0,0
423,-7.0,0
424,-8.0,0
425,-7.0,0
426,-7.0,0
427,-7.0,0
428,-7.0,0
429,-7.0,0
430,-7.0,0
431,-6.0,0
432,-6.0,0
433,-6.0,0
434,-6.0,0
435,-6.0,0
436,-5.0,0
437,-4.0,0
438,-3.0,0
439,-2.0,0
440,-2.0,0
441,-2.0,0
442,-2.0,0
443,-2.0,0
444,-2.0,0
445,-2.0,0
446,-2.0,0
447,-1.0,0
448,-1.0,0
449,-2.0,0
450,-2.0,0
451,-2.0,0
452,-2.0,0
453,-2.0,0
454,-1.0,0
455,0.0,0
456,0.0,0
457,0.0,0
458,0.0,0
459,0.0,0
460,0.0,0
461,0.0,0
462,1.0,0
463,1.0,0
464,1.0,0
465,0.0,0
466,0.0,0
467,0.0,0
468,1.0,0
469,1.0,0
470,1.0,0
471,1.0,0
472,0.0,0
473,0.0,0
474,1.0,0
475,1.0,0
476,0.0,0
477,0.0,0
478,-4.0,0
479,-1.0,0
480,14.0,0
481,35.0,0
482,53.0,0
483,60.0,0
484,55.0,0
485,40.0,0
486,21.0,0
487,5.0,0
488,-2.0,0
489,-5.0,0
490,-8.0,0
491,-10.0,0
492,-10.0,0
493,-9.0,0
494,-9.0,0
495,-8.0,0
496,-8.0,0
497,-8.0,0
498,-8.0,0
499,-7.0,0
500,-7.0,0
501,-6.0,0
502,-6.0,0
503,-5.0,0
504,-5.0,0
505,-5.0,0
506,-5.0,0
507,-4.0,0
508,-4.0,0
509,-4.0,0
510,-4.0,0
511,-5.0,0
512,-5.0,0
513,-5.0,0
514,-6.0,0
515,-6.0,0
516,-6.0,0
517,-6.0,0
518,-6.0,0
519,-6.0,0
520,-5.0,0
521,-4.0,0
522,-2.0,0
523,-2.0,0
524,-2.0,0
525,-2.0,0
526,-2.0,0
527,-2.0,0
528,-2.0,0
529,-1.0,0
530,-1.0,0
531,-1.0,0
532,-1.0,0
533,-1.0,0
534,-1.0,0
535,-1.0,0
536,-1.0,0
537,-1.0,0
538,-1.0,0
539,-1.0,0
540,0.0,0
541,0.0,0
542,-1.0,0
543,-1.0,0
544,-1.0,0
545,-1.0,0
546,0.0,0
547,0.0,0
548,0.0,0
549,1.0,0
550,1.0,0
551,1.0,0
552,0.0,0
553,0.0,0
554,1.0,0
555,1.0,0
556,1.0,0
557,1.0,0
558,1.0,0
559,1.0,0
560,1.0,0
561,2.0,0
562,1.0,0
563,1.0,0
564,1.0,0
565,1.0,0
566,1.0,0
567,1.0,0
568,1.0,0
569,0.0,0
570,0.0,0
571,-4.0,0
572,0.0,0
573,15.0,0
574,37.0,0
575,54.0,0
576,60.0,0
577,54.0,0
578,39.0,0
579,20.0,0
580,5.0,0
581,-1.0,0
582,-5.0,0
583,-8.0,0
584,-8.0,0
585,-8.0,0
586,-8.0,0
587,-8.0,0
588,-8.0,0
589,-8.0,0
590,-8.0,0
591,-7.0,0
592,-7.0,0
593,-6.0,0
594,-6.0,0
595,-6.0,0
596,-6.0,0
597,-6.0,0
598,-6.0,0
599,-5.0,0
600,-3.0,0
601,-3.0,0
602,-4.0,0
603,-5.0,0
604,-6.0,0
605,-6.0,0
606,-6.0,0
607,-6.0,0
608,-6.0,0
609,-7.0,0
610,-7.0,0
611,-7.0,0
612,-7.0,0
613,-7.0,0
614,-7.0,0
615,-7.0,0
616,-5.0,0
617,-4.0,0
618,-3.0,0
619,-3.0,0
620,-3.0,0
621,-3.0,0
622,-3.0,0
623,-3.0,0
624,-3.0,0
625,-3.0,0
626,-3.0,0
627,-2.0,0
628,-2.0,0
629,-2.0,0
630,-2.0,0
631,-2.0,0
632,-2.0,0
633,-2.0,0
634,-2.0,0
635,-2.0,0
636,-2.0,0
637,-2.0,0
638,-2.0,0
639,-1.0,0
640,-1.0,0
641,0.0,0
642,0.0,0
643,0.0,0
644,0.0,0
645,0.0,0
646,0.0,0
647,0.0,0
648,0.0,0
649,0.0,0
650,0.0,0
651,0.0,0
652,0.0,0
653,1.0,0
654,1.0,0
655,1.0,0
656,1.0,0
657,1.0,0
658,1.0,0
659,0.0,0
660,0.0,0
661,1.0,0
662,0.0,0
663,-1.0,0
664,-3.0,0
665,0.0,0
666,13.0,0
667,35.0,0
668,53.0,0
669,59.0,0
670,55.0,0
671,39.0,0
672,20.0,0
673,4.0,0
674,-2.0,0
675,-6.0,0
676,-8.0,0
677,-11.0,0
678,-11.0,0
679,-10.0,0
680,-8.0,0
681,-8.0,0
682,-8.0,0
683,-8.0,0
684,-8.0,0
685,-7.0,0
686,-7.0,0
687,-7.0,0
688,-6.0,0
689,-6.0,0
690,-5.0,0
691,-5.0,0
692,-5.0,0
693,-4.0,0
694,-3.0,0
695,-3.0,0
696,-4.0,0
697,-3.0,0
698,-4.0,0
699,-5.0,0
700,-5.0,0
701,-4.0,0
702,-3.0,0
703,-3.0,0
704,-3.0,0
705,-3.0,0
706,-3.0,0
707,-3.0,0
708,-3.0,0
709,-2.0,0
710,-2.0,0
711,-2.0,0
712,-2.0,0
713,-2.0,0
714,-2.0,0
715,-2.0,0
716,-1.0,0
717,-1.0,0
718,-1.0,0
719,-1.0,0
720,0.0,0
721,0.0,0
722,-1.0,0
723,0.0,0
724,0.0,0
725,0.0,0
726,0.0,0
727,0.0,0
728,0.0,0
729,-1.0,0
730,-1.0,0
731,0.0,0
732,0.0,0
733,0.0,0
734,1.0,0
735,2.0,0
736,2.0,0
737,2.0,0
738,2.0,0
739,2.0,0
740,2.0,0
741,2.0,0
742,2.0,0
743,2.0,0
744,2.0,0
745,2.0,0
746,2.0,0
747,2.0,0
748,2.0,0
749,2.0,0
750,2.0,0
751,2.0,0
752,2.0,0
753,2.0,0
754,2.0,0
755,1.0,0
756,-1.0,0
757,-2.0,0
758,9.0,0
759,30.0,0
760,51.0,0
761,60.0,0
762,60.0,0
763,46.0,0
764,27.0,0
765,9.0,0
766,0.0,0
767,-3.0,0
768,-7.0,0
769,-7.0,0
770,-8.0,0
771,-8.0,0
772,-8.0,0
773,-8.0,0
774,-7.0,0
775,-7.0,0
776,-7.0,0
777,-7.0,0
778,-6.0,0
779,-6.0,0
780,-5.0,0
781,-4.0,0
782,-4.0,0
783,-4.0,0
784,-4.0,0
785,-3.0,0
786,-3.0,0
787,-3.0,0
788,-3.0,0
789,-3.0,0
790,-4.0,0
791,-5.0,0
792,-5.0,0
793,-6.0,0
794,-6.0,0
795,-6.0,0
796,-6.0,0
797,-6.0,0
798,-6.0,0
799,-6.0,0
800,-6.0,0
801,-6.0,0
802,-6.0,0
803,-5.0,0
804,-4.0,0
805,-3.0,0
806,-4.0,0
807,-4.0,0
808,-3.0,0
809,-2.0,0
810,-2.0,0
811,-2.0,0
812,-2.0,0
813,-2.0,0
814,-2.0,0
815,-2.0,0
816,-2.0,0
817,-2.0,0
818,-2.0,0
819,-2.0,0
820,-2.0,0
821,-2.0,0
822,-2.0,0
823,-2.0,0
824,-1.0,0
825,0.0,0
826,0.0,0
827,0.0,0
828,0.0,0
829,0.0,0
830,0.0,0
831,0.0,0
832,0.0,0
833,0.0,0
834,0.0,0
835,0.0,0
836,0.0,0
837,1.0,0
838,1.0,0
839,1.0,0
840,0.0,0
841,0.0,0
842,1.0,0
843,1.0,0
844,1.0,0
845,1.0,0
846,0.0,0
847,0.0,0
848,0.0,0
849,-6.0,0
850,1.0,0
851,19.0,0
852,41.0,0
853,57.0,0
854,60.0,0
855,53.0,0
856,35.0,0
857,15.0,0
858,1.0,0
859,-3.0,0
860,-7.0,0
861,-9.0,0
862,-10.0,0
863,-10.0,0
864,-11.0,0
865,-8.0,0
866,-8.0,0
867,-8.0,0
868,-8.0,0
869,-7.0,0
870,-7.0,0
871,-7.0,0
872,-6.0,0
873,-6.0,0
874,-6.0,0
875,-6.0,0
876,-4.0,0
877,-3.0,0
878,-3.0,0
879,-3.0,0
880,-3.0,0
881,-3.0,0
882,-3.0,0
883,-4.0,0
884,-4.0,0
885,-5.0,0
886,-5.0,0
887,-6.0,0
888,-6.0,0
889,-6.0,0
890,-5.0,0
891,-3.0,0
892,-3.0,0
893,-3.0,0
894,-2.0,0
895,-2.0,0
896,-2.0,0
897,-1.0,0
898,-1.0,0
899,0.0,0
900,0.0,0
901,-1.0,0
902,-1.0,0
903,0.0,0
904,0.0,0
905,0.0,0
906,0.0,0
907,0.0,0
908,0.0,0
909,0.0,0
910,0.0,0
911,0.0,0
912,0.0,0
913,-1.0,0
914,-1.0,0
915,-1.0,0
916,0.0,0
917,0.0,0
918,0.0,0
919,1.0,0
920,1.0,0
921,2.0,0
922,2.0,0
923,2.0,0
924,2.0,0
925,2.0,0
926,2.0,0
927,1.0,0
928,1.0,0
929,1.0,0
930,1.0,0
931,1.0,0
932,0.0,0
933,0.0,0
934,1.0,0
935,1.0,0
936,1.0,0
937,1.0,0
938,0.0,0
939,0.0,0
940,0.0,0
941,-5.0,0
942,0.0,0
943,18.0,0
944,41.0,0
945,56.0,0
946,61.0,0
947,53.0,0
948,37.0,0
949,17.0,0
950,4.0,0
951,-1.0,0
952,-5.0,0
953,-8.0,0
954,-10.0,0
955,-10.0,0
956,-9.0,0
957,-9.0,0
958,-8.0,0
959,-8.0,0
960,-8.0,0
961,-8.0,0
962,-7.0,0
963,-7.0,0
964,-6.0,0
965,-6.0,0
966,-6.0,0
967,-4.0,0
968,-3.0,0
969,-3.0,0
970,-2.0,0
971,-2.0,0
972,-1.0,0
973,0.0,0
974,0.0,0
975,0.0,0
976,0.0,0
977,0.0,0
978,0.0,0
979,0.0,0
980,0.0,0
981,0.0,0
982,0.0,0
983,0.0,0
984,0.0,0
985,0.0,0
986,0.0,0
987,0.0,0
988,1.0,0
989,1.0,0
990,1.0,0
991,1.0,0
992,1.0,0
993,1.0,0
994,1.0,0
995,2.0,0
996,2.0,0
997,2.0,0
998,2.0,0
999,2.0,0
1000,3.0,0
1001,3.0,0
1002,3.0,0
1003,3.0,0
1004,3.0,0
1005,2.0,0
1006,2.0,0
1007,2.0,0
1008,3.0,0
1009,4.0,0
1010,6.0,0
1011,7.0,0
1012,7.0,0
1013,7.0,0
1014,7.0,0
1015,7.0,0
1016,7.0,0
1017,7.0,0
1018,7.0,0
1019,7.0,0
1020,8.0,0
1021,8.0,0
1022,8.0,0
1023,7.0,0
1024,7.0,0
1025,7.0,0
1026,8.0,0
1027,8.0,0
1028,8.0,0
1029,7.0,0
1030,7.0,0
1031,7.0,0
1032,5.0,0
1033,1.0,0
1034,7.0,0
1035,24.0,0
1036,46.0,0
1037,62.0,0
1038,68.0,0
1039,62.0,0
1040,47.0,0
1041,27.0,0
1042,11.0,0
1043,2.0,0
1044,-1.0,0
1045,-2.0,0
1046,-3.0,0
1047,-4.0,0
1048,-4.0,0
1049,-4.0,0
1050,-3.0,0
1051,-3.0,0
1052,-3.0,0
1053,-3.0,0
1054,-3.0,0
1055,-3.0,0
1056,-3.0,0
1057,-2.0,0
1058,-2.0,0
1059,-2.0,0
1060,-2.0,0
1061,-1.0,0
1062,-1.0,0
1063,-1.0,0
1064,-1.0,0
1065,-1.0,0
1066,-2.0,0
1067,-2.0,0
1068,-2.0,0
1069,-2.0,0
1070,-2.0,0
1071,-2.0,0
1072,-3.0,0
1073,-3.0,0
1074,-3.0,0
1075,-3.0,0
1076,-3.0,0
1077,-3.0,0
1078,-3.0,0
1079,-3.0,0
1080,-3.0,0
1081,-3.0,0
1082,-2.0,0
1083,-2.0,0
1084,-3.0,0
1085,-3.0,0
1086,-3.0,0
1087,-3.0,0
1088,-3.0,0
1089,-3.0,0
1090,-2.0,0
1091,-2.0,0
1092,-2.0,0
1093,-2.0,0
1094,-2.0,0
1095,-2.0,0
1096,-3.0,0
1097,-4.0,0
1098,-4.0,0
1099,-3.0,0
1100,-3.0,0
1101,-2.0,0
1102,0.0,0
1103,0.0,0
1104,-1.0,0
1105,-1.0,0
1106,-1.0,0
1107,0.0,0
1108,0.0,0
1109,0.0,0
1110,0.0,0
1111,0.0,0
1112,0.0,0
1113,0.0,0
1114,0.0,0
1115,0.0,0
1116,0.0,0
1117,0.0,0
1118,0.0,0
1119,0.0,0
1120,0.0,0
1121,0.0,0
1122,0.0,0
1123,0.0,0
1124,-1.0,0
1125,-6.0,0
1126,-5.0,0
1127,8.0,0
1128,30.0,0
1129,50.0,0
1130,59.0,0
1131,58.0,0
1132,45.0,0
1133,25.0,0
1134,8.0,0
1135,-2.0,0
1136,-6.0,0
1137,-9.0,0
1138,-11.0,0
1139,-12.0,0
1140,-12.0,0
1141,-12.0,0
1142,-12.0,0
1143,-11.0,0
1144,-11.0,0
1145,-11.0,0
1146,-11.0,0
1147,-11.0,0
1148,-10.0,0
1149,-8.0,0
1150,-8.0,0
1151,-8.0,0
1152,-8.0,0
1153,-8.0,0
1154,-8.0,0
1155,-8.0,0
1156,-7.0,0
1157,-7.0,0
1158,-7.0,0
1159,-8.0,0
1160,-8.0,0
1161,-8.0,0
1162,-8.0,0
1163,-8.0,0
1164,-8.0,0
1165,-7.0,0
1166,-7.0,0
1167,-8.0,0
1168,-7.0,0
1169,-7.0,0
1170,-7.0,0
1171,-7.0,0
1172,-7.0,0
1173,-7.0,0
1174,-6.0,0
1175,-6.0,0
1176,-6.0,0
1177,-6.0,0
1178,-6.0,0
1179,-6.0,0
1180,-6.0,0
1181,-5.0,0
1182,-5.0,0
1183,-5.0,0
1184,-4.0,0
1185,-4.0,0
1186,-3.0,0
1187,-3.0,0
1188,-3.0,0
1189,-3.0,0
1190,-3.0,0
1191,-5.0,0
1192,-5.0,0
1193,-5.0,0
1194,-3.0,0
1195,-3.0,0
1196,-2.0,0
1197,-1.0,0
1198,-1.0,0
1199,-1.0,0
1200,-1.0,0
1201,-1.0,0
1202,-1.0,0
1203,0.0,0
1204,0.0,0
1205,-1.0,0
1206,-1.0,0
1207,0.0,0
1208,0.0,0
1209,0.0,0
1210,0.0,0
1211,0.0,0
1212,0.0,0
1213,0.0,0
1214,0.0,0
1215,0.0,0
1216,0.0,0
1217,0.0,0
1218,-3.0,0
1219,-6.0,0
1220,-1.0,0
1221,15.0,0
1222,38.0,0
1223,55.0,0
1224,58.0,0
1225,51.0,0
1226,34.0,0
1227,15.0,0
1228,1.0,0
1229,-3.0,0
1230,-8.0,0
1231,-11.0,0
1232,-12.0,0
1233,-12.0,0
1234,-12.0,0
1235,-11.0,0
1236,-11.0,0
1237,-11.0,0
1238,-11.0,0
1239,-11.0,0
1240,-10.0,0
1241,-10.0,0
1242,-8.0,0
1243,-8.0,0
1244,-8.0,0
1245,-7.0,0
1246,-7.0,0
1247,-6.0,0
1248,-6.0,0
1249,-6.0,0
1250,-6.0,0
1251,-6.0,0
1252,-6.0,0
1253,-6.0,0
1254,-6.0,0
1255,-6.0,0
1256,-7.0,0
1257,-7.0,0
1258,-7.0,0
1259,-7.0,0
1260,-7.0,0
1261,-7.0,0
1262,-6.0,0
1263,-6.0,0
1264,-6.0,0
1265,-5.0,0
1266,-5.0,0
1267,-4.0,0
1268,-4.0,0
1269,-3.0,0
1270,-3.0,0
1271,-3.0,0
1272,-3.0,0
1273,-3.0,0
1274,-3.0,0
1275,-3.0,0
1276,-3.0,0
1277,-2.0,0
1278,-2.0,0
1279,-2.0,0
1280,-2.0,0
1281,-2.0,0
1282,-2.0,0
1283,-2.0,0
1284,-3.0,0
1285,-3.0,0
1286,-3.0,0
1287,-3.0,0
1288,-2.0,0
1289,0.0,0
1290,0.0,0
1291,0.0,0
1292,0.0,0
1293,0.0,0
1294,0.0,0
1295,0.0,0
1296,0.0,0
1297,0.0,0
1298,0.0,0
1299,0.0,0
1300,0.0,0
1301,0.0,0
1302,0.0,0
1303,0.0,0
1304,0.0,0
1305,0.0,0
1306,0.0,0
1307,0.0,0
1308,0.0,0
1309,0.0,0
1310,0.0,0
1311,-1.0,0
1312,-5.0,0
1313,-2.0,0
1314,12.0,0
1315,34.0,0
1316,54.0,0
1317,60.0,0
1318,57.0,0
1319,40.0,0
1320,21.0,0
1321,4.0,0
1322,-2.0,0
1323,-5.0,0
1324,-8.0,0
1325,-10.0,0
1326,-9.0,0
1327,-9.0,0
1328,-9.0,0
1329,-9.0,0
1330,-8.0,0
1331,-8.0,0
1332,-8.0,0
1333,-8.0,0
1334,-7.0,0
1335,-7.0,0
1336,-6.0,0
1337,-6.0,0
1338,-6.0,0
1339,-6.0,0
1340,-4.0,0
1341,-4.0,0
1342,-5.0,0
1343,-5.0,0
1344,-5.0,0
1345,-5.0,0
1346,-5.0,0
1347,-6.0,0
1348,-6.0,0
1349,-6.0,0
1350,-6.0,0
1351,-6.0,0
1352,-6.0,0
1353,-6.0,0
1354,-6.0,0
1355,-6.0,0
1356,-6.0,0
1357,-5.0,0
1358,-4.0,0
1359,-3.0,0
1360,-3.0,0
1361,-3.0,0
1362,-4.0,0
1363,-3.0,0
1364,-3.0,0
1365,-3.0,0
1366,-3.0,0
1367,-3.0,0
1368,-3.0,0
1369,-3.0,0
1370,-2.0,0
1371,-2.0,0
1372,-2.0,0
1373,-2.0,0
1374,-2.0,0
1375,0.0,0
1376,0.0,0
1377,-1.0,0
1378,-1.0,0
1379,-1.0,0
1380,-1.0,0
1381,0.0,0
1382,0.0,0
1383,0.0,0
1384,1.0,0
1385,1.0,0
1386,1.0,0
1387,1.0,0
1388,1.0,0
1389,1.0,0
1390,0.0,0
1391,0.0,0
1392,0.0,0
1393,0.0,0
1394,1.0,0
1395,1.0,0
1396,0.0,0
1397,0.0,0
1398,0.0,0
1399,0.0,0
1400,0.0,0
1401,0.0,0
1402,0.0,0
1403,0.0,0
1404,-1.0,0
1405,-6.0,0
1406,-3.0,0
1407,9.0,0
1408,29.0,0
1409,52.0,0
1410,59.0,0
1411,59.0,0
1412,43.0,0
1413,24.0,0
1414,7.0,0
1415,0.0,0
1416,-4.0,0
1417,-6.0,0
1418,-7.0,0
1419,-7.0,0
1420,-7.0,0
1421,-7.0,0
1422,-7.0,0
1423,-6.0,0
1424,-6.0,0
1425,-5.0,0
1426,-4.0,0
1427,-3.0,0
1428,-3.0,0
1429,-2.0,0
1430,-2.0,0
1431,-1.0,0
1432,-1.0,0
1433,0.0,0
1434,0.0,0
1435,0.0,0
1436,0.0,0
1437,0.0,0
1438,0.0,0
1439,1.0,0
1440,0.0,0
1441,0.0,0
1442,0.0,0
1443,0.0,0
1444,0.0,0
1445,0.0,0
1446,0.0,0
1447,0.0,0
1448,0.0,0
1449,0.0,0
1450,1.0,0
1451,1.0,0
1452,1.0,0
1453,1.0,0
1454,1.0,0
1455,1.0,0
1456,2.0,0
1457,2.0,0
1458,2.0,0
1459,2.0,0
1460,2.0,0
1461,2.0,0
1462,2.0,0
1463,2.0,0
1464,2.0,0
1465,2.0,0
1466,3.0,0
1467,3.0,0
1468,4.0,0
1469,3.0,0
1470,2.0,0
1471,2.0,0
1472,3.0,0
1473,3.0,0
1474,3.0,0
1475,5.0,0
1476,7.0,0
1477,7.0,0
1478,7.0,0
1479,7.0,0
1480,7.0,0
1481,7.0,0
1482,7.0,0
1483,7.0,0
1484,7.0,0
1485,7.0,0
1486,7.0,0
1487,7.0,0
1488,7.0,0
1489,7.0,0
1490,7.0,0
1491,7.0,0
1492,7.0,0
1493,6.0,0
1494,6.0,0
1495,6.0,0
1496,6.0,0
1497,4.0,0
1498,0.0,0
1499,0.0,0
1500,13.0,0
1501,34.0,0
1502,56.0,0
1503,65.0,0
1504,64.0,0
1505,51.0,0
1506,32.0,0
1507,13.0,0
1508,2.0,0
1509,-1.0,0
1510,-3.0,0
1511,-6.0,0
1512,-7.0,0
1513,-7.0,0
1514,-7.0,0
1515,-7.0,0
1516,-7.0,0
1517,-6.0,0
1518,-6.0,0
1519,-7.0,0
1520,-7.0,0
1521,-7.0,0
1522,-7.0,0
1523,-7.0,0
1524,-6.0,0
1525,-6.0,0
1526,-6.0,0
1527,-6.0,0
1528,-6.0,0
1529,-6.0,0
1530,-6.0,0
1531,-6.0,0
1532,-6.0,0
1533,-6.0,0
1534,-6.0,0
1535,-6.0,0
1536,-6.0,0
1537,-6.0,0
1538,-7.0,0
1539,-7.0,0
1540,-7.0,0
1541,-7.0,0
1542,-7.0,0
1543,-7.0,0
1544,-6.0,0
1545,-6.0,0
1546,-6.0,0
1547,-6.0,0
1548,-6.0,0
1549,-6.0,0
1550,-6.0,0
1551,-6.0,0
1552,-6.0,0
1553,-5.0,0
1554,-5.0,0
1555,-3.0,0
1556,-3.0,0
1557,-4.0,0
1558,-3.0,0
1559,-3.0,0
1560,-3.0,0
1561,-3.0,0
1562,-3.0,0
1563,-4.0,0
1564,-4.0,0
1565,-4.0,0
1566,-4.0,0
1567,-2.0,0
1568,-1.0,0
1569,0.0,0
1570,0.0,0
1571,-1.0,0
1572,-1.0,0
1573,-1.0,0
1574,-1.0,0
1575,-1.0,0
1576,0.0,0
1577,0.0,0
1578,-1.0,0
1579,-1.0,0
1580,0.0,0
1581,0.0,0
1582,0.0,0
1583,0.0,0
1584,0.0,0
1585,0.0,0
1586,0.0,0
1587,0.0,0
1588,0.0,0
1589,0.0,0
1590,0.0,0
1591,-4.0,0
1592,-6.0,0
1593,2.0,0
1594,21.0,0
1595,44.0,0
1596,57.0,0
1597,59.0,0
1598,49.0,0
1599,31.0,0
1600,13.0,0
1601,1.0,0
1602,-4.0,0
1603,-8.0,0
1604,-10.0,0
1605,-11.0,0
1606,-11.0,0
1607,-11.0,0
1608,-11.0,0
1609,-11.0,0
1610,-10.0,0
1611,-9.0,0
1612,-9.0,0
1613,-8.0,0
1614,-8.0,0
1615,-8.0,0
1616,-7.0,0
1617,-7.0,0
1618,-7.0,0
1619,-6.0,0
1620,-6.0,0
1621,-6.0,0
1622,-6.0,0
1623,-6.0,0
1624,-6.0,0
1625,-6.0,0
1626,-6.0,0
1627,-6.0,0
1628,-6.0,0
1629,-7.0,0
1630,-7.0,0
1631,-7.0,0
1632,-6.0,0
1633,-6.0,0
1634,-7.0,0
1635,-6.0,0
1636,-6.0,0
1637,-6.0,0
1638,-6.0,0
1639,-6.0,0
1640,-6.0,0
1641,-5.0,0
1642,-4.0,0
1643,-3.0,0
1644,-3.0,0
1645,-3.0,0
1646,-3.0,0
1647,-5.0,0
1648,-4.0,0
1649,-4.0,0
1650,-4.0,0
1651,-3.0,0
1652,-3.0,0
1653,-3.0,0
1654,-3.0,0
1655,-3.0,0
1656,-3.0,0
1657,-3.0,0
1658,-4.0,0
1659,-4.0,0
1660,-3.0,0
1661,-1.0,0
1662,-1.0,0
1663,-1.0,0
1664,-1.0,0
1665,-1.0,0
1666,-1.0,0
1667,-1.0,0
1668,0.0,0
1669,0.0,0
1670,-1.0,0
1671,-1.0,0
1672,-1.0,0
1673,-1.0,0
1674,0.0,0
1675,0.0,0
1676,0.0,0
1677,0.0,0
1678,0.0,0
1679,-1.0,0
1680,-1.0,0
1681,-1.0,0
1682,0.0,0
1683,-1.0,0
1684,-5.0,0
1685,-7.0,0
1686,1.0,0
1687,21.0,0
1688,42.0,0
1689,56.0,0
1690,58.0,0
1691,48.0,0
1692,29.0,0
1693,11.0,0
1694,0.0,0
1695,-5.0,0
1696,-9.0,0
1697,-11.0,0
1698,-12.0,0
1699,-12.0,0
1700,-12.0,0
1701,-12.0,0
1702,-12.0,0
1703,-11.0,0
1704,-11.0,0
1705,-11.0,0
1706,-10.0,0
1707,-10.0,0
1708,-9.0,0
1709,-8.0,0
1710,-8.0,0
1711,-8.0,0
1712,-7.0,0
1713,-7.0,0
1714,-7.0,0
1715,-7.0,0
1716,-7.0,0
1717,-7.0,0
1718,-7.0,0
1719,-7.0,0
1720,-7.0,0
1721,-7.0,0
1722,-7.0,0
1723,-7.0,0
1724,-8.0,0
1725,-7.0,0
1726,-7.0,0
1727,-7.0,0
1728,-7.0,0
1729,-7.0,0
1730,-7.0,0
1731,-7.0,0
1732,-6.0,0
1733,-6.0,0
1734,-6.0,0
1735,-7.0,0
1736,-6.0,0
1737,-6.0,0
1738,-6.0,0
1739,-6.0,0
1740,-5.0,0
1741,-5.0,0
1742,-4.0,0
1743,-2.0,0
1744,-1.0,0
1745,-1.0,0
1746,-1.0,0
1747,0.0,0
1748,0.0,0
1749,0.0,0
1750,0.0,0
1751,0.0,0
1752,0.0,0
1753,0.0,0
1754,0.0,0
1755,1.0,0
1756,2.0,0
1757,3.0,0
1758,2.0,0
1759,2.0,0
1760,2.0,0
1761,2.0,0
1762,3.0,0
1763,3.0,0
1764,3.0,0
1765,4.0,0
1766,4.0,0
1767,5.0,0
1768,5.0,0
1769,6.0,0
1770,6.0,0
1771,6.0,0
1772,5.0,0
1773,5.0,0
1774,6.0,0
1775,6.0,0
1776,6.0,0
1777,4.0,0
1778,1.0,0
1779,2.0,0
1780,13.0,0
1781,34.0,0
1782,55.0,0
1783,65.0,0
1784,66.0,0
1785,54.0,0
1786,36.0,0
1787,17.0,0
1788,5.0,0
1789,0.0,0
1790,0.0,0
1791,-1.0,0
1792,-2.0,0
1793,-1.0,0
1794,-1.0,0
1795,-1.0,0
1796,-1.0,0
1797,-2.0,0
1798,-1.0,0
1799,0.0,0
1800,0.0,0
1801,0.0,0
1802,0.0,0
1803,0.0,0
1804,0.0,0
1805,0.0,0
1806,0.0,0
1807,1.0,0
1808,1.0,0
1809,1.0,0
1810,1.0,0
1811,2.0,0
1812,2.0,0
1813,2.0,0
1814,1.0,0
1815,1.0,0
1816,0.0,0
1817,0.0,0
1818,1.0,0
1819,1.0,0
1820,1.0,0
1821,1.0,0
1822,1.0,0
1823,1.0,0
1824,1.0,0
1825,1.0,0
1826,1.0,0
1827,1.0,0
1828,1.0,0
1829,1.0,0
1830,2.0,0
1831,2.0,0
1832,2.0,0
1833,2.0,0
1834,2.0,0
1835,2.0,0
1836,2.0,0
1837,2.0,0
1838,2.0,0
1839,2.0,0
1840,2.0,0
1841,1.0,0
1842,1.0,0
1843,1.0,0
1844,0.0,0
1845,0.0,0
1846,1.0,0
1847,2.0,0
1848,3.0,0
1849,3.0,0
1850,3.0,0
1851,3.0,0
1852,2.0,0
1853,2.0,0
1854,2.0,0
1855,2.0,0
1856,2.0,0
1857,2.0,0
1858,3.0,0
1859,3.0,0
1860,2.0,0
1861,2.0,0
1862,2.0,0
1863,2.0,0
1864,2.0,0
1865,2.0,0
1866,2.0,0
1867,2.0,0
1868,1.0,0
1869,0.0,0
1870,-3.0,0
1871,-1.0,0
1872,12.0,0
1873,35.0,0
1874,56.0,0
1875,62.0,0
1876,61.0,0
1877,45.0,0
1878,24.0,0
1879,5.0,0
1880,-1.0,0
1881,-6.0,0
1882,-8.0,0
1883,-10.0,0
1884,-11.0,0
1885,-11.0,0
1886,-11.0,0
1887,-11.0,0
1888,-11.0,0
1889,-11.0,0
1890,-11.0,0
1891,-11.0,0
1892,-10.0,0
1893,-10.0,0
1894,-10.0,0
1895,-9.0,0
1896,-9.0,0
1897,-9.0,0
1898,-8.0,0
1899,-8.0,0
1900,-8.0,0
1901,-8.0,0
1902,-8.0,0
1903,-8.0,0
1904,-8.0,0
1905,-8.0,0
1906,-8.0,0
1907,-8.0,0
1908,-8.0,0
1909,-8.0,0
1910,-8.0,0
1911,-8.0,0
1912,-8.0,0
1913,-8.0,0
1914,-8.0,0
1915,-7.0,0
1916,-7.0,0
1917,-7.0,0
1918,-7.0,0
1919,-7.0,0
1920,-7.0,0
1921,-7.0,0
1922,-7.0,0
1923,-7.0,0
1924,-7.0,0
1925,-7.0,0
1926,-7.0,0
1927,-6.0,0
1928,-6.0,0
1929,-7.0,0
1930,-5.0,0
1931,-5.0,0
1932,-6.0,0
1933,-6.0,0
1934,-6.0,0
1935,-7.0,0
1936,-7.0,0
1937,-6.0,0
1938,-6.0,0
1939,-4.0,0
1940,-3.0,0
1941,-2.0,0
1942,-2.0,0
1943,-2.0,0
1944,-2.0,0
1945,-3.0,0
1946,-2.0,0
1947,-2.0,0
1948,-2.0,0
1949,-2.0,0
1950,-2.0,0
1951,-2.0,0
1952,-2.0,0
1953,-2.0,0
1954,-2.0,0
1955,-2.0,0
1956,-2.0,0
1957,-2.0,0
1958,-3.0,0
1959,-2.0,0
1960,-2.0,0
1961,-3.0,0
1962,-6.0,0
1963,-11.0,0
1964,-2.0,0
1965,15.0,0
1966,40.0,0
1967,53.0,0
1968,58.0,0
1969,48.0,0
1970,31.0,0
1971,11.0,0
1972,-1.0,0
1973,-7.0,0
1974,-11.0,0
1975,-12.0,0
1976,-13.0,0
1977,-13.0,0
1978,-13.0,0
1979,-13.0,0
1980,-13.0,0
1981,-13.0,0
1982,-13.0,0
1983,-12.0,0
1984,-11.0,0
1985,-11.0,0
1986,-11.0,0
1987,-11.0,0
1988,-11.0,0
1989,-11.0,0
1990,-10.0,0
1991,-8.0,0
1992,-8.0,0
1993,-8.0,0
1994,-8.0,0
1995,-8.0,0
1996,-8.0,0
1997,-8.0,0
1998,-8.0,0
1999,-8.0,0
2000,-8.0,0
2001,-8.0,0
2002,-9.0,0
2003,-9.0,0
2004,-8.0,0
2005,-8.0,0
2006,-8.0,0
2007,-8.0,0
2008,-8.0,0
2009,-7.0,0
2010,-7.0,0
2011,-7.0,0
2012,-6.0,0
2013,-6.0,0
2014,-6.0,0
2015,-6.0,0
2016,-6.0,0
2017,-6.0,0
2018,-6.0,0
2019,-6.0,0
2020,-5.0,0
2021,-5.0,0
2022,-6.0,0
2023,-5.0,0
2024,-4.0,0
2025,-3.0,0
2026,-3.0,0
2027,-3.0,0
2028,-3.0,0
2029,-4.0,0
2030,-5.0,0
2031,-3.0,0
2032,-2.0,0
2033,-1.0,0
2034,-1.0,0
2035,0.0,0
2036,0.0,0
2037,0.0,0
2038,0.0,0
2039,0.0,0
2040,0.0,0
2041,0.0,0
2042,0.0,0
2043,0.0,0
2044,0.0,0
2045,0.0,0
2046,0.0,0
2047,0.0,0
2048,0.0,0
2049,0.0,0
2050,0.0,0
2051,0.0,0
2052,0.0,0
2053,0.0,0
2054,0.0,0
2055,0.0,0
2056,-2.0,0
2057,-6.0,0
2058,-1.0,0
2059,14.0,0
2060,36.0,0
2061,51.0,0
2062,57.0,0
2063,51.0,0
2064,36.0,0
2065,16.0,0
2066,3.0,0
2067,-3.0,0
2068,-7.0,0
2069,-9.0,0
2070,-11.0,0
2071,-11.0,0
2072,-11.0,0
2073,-11.0,0
2074,-10.0,0
2075,-9.0,0
2076,-9.0,0
2077,-8.0,0
2078,-8.0,0
2079,-7.0,0
2080,-7.0,0
2081,-7.0,0
2082,-6.0,0
2083,-6.0,0
2084,-6.0,0
2085,-5.0,0
2086,-5.0,0
2087,-5.0,0
2088,-4.0,0
2089,-4.0,0
2090,-4.0,0
2091,-4.0,0
2092,-5.0,0
2093,-6.0,0
2094,-6.0,0
2095,-6.0,0
2096,-4.0,0
2097,-3.0,0
2098,-3.0,0
2099,-3.0,0
2100,-3.0,0
2101,-3.0,0
2102,-3.0,0
2103,-2.0,0
2104,-2.0,0
2105,-2.0,0
2106,-2.0,0
2107,-2.0,0
2108,-2.0,0
2109,-2.0,0
2110,-2.0,0
2111,-2.0,0
2112,-2.0,0
2113,-2.0,0
2114,-2.0,0
2115,-2.0,0
2116,-1.0,0
2117,-1.0,0
2118,-1.0,0
2119,-1.0,0
2120,-1.0,0
2121,-2.0,0
2122,-2.0,0
2123,-2.0,0
2124,-2.0,0
2125,-1.0,0
2126,0.0,0
2127,0.0,0
2128,1.0,0
2129,1.0,0
2130,1.0,0
2131,0.0,0
2132,0.0,0
2133,0.0,0
2134,0.0,0
2135,0.0,0
2136,1.0,0
2137,1.0,0
2138,1.0,0
2139,1.0,0
2140,1.0,0
2141,1.0,0
2142,1.0,0
2143,1.0,0
2144,1.0,0
2145,1.0,0
2146,1.0,0
2147,1.0,0
2148,0.0,0
2149,-1.0,0
2150,-3.0,0
2151,4.0,0
2152,22.0,0
2153,43.0,0
2154,57.0,0
2155,60.0,0
2156,51.0,0
2157,34.0,0
2158,15.0,0
2159,2.0,0
2160,-2.0,0
2161,-6.0,0
2162,-8.0,0
2163,-9.0,0
2164,-8.0,0
2165,-8.0,0
2166,-8.0,0
2167,-8.0,0
2168,-8.0,0
2169,-7.0,0
2170,-7.0,0
2171,-7.0,0
2172,-7.0,0
2173,-6.0,0
2174,-6.0,0
2175,-6.0,0
2176,-6.0,0
2177,-5.0,0
2178,-5.0,0
2179,-4.0,0
2180,-5.0,0
2181,-6.0,0
2182,-4.0,0
2183,-5.0,0
2184,-6.0,0
2185,-6.0,0
2186,-6.0,0
2187,-6.0,0
2188,-6.0,0
2189,-5.0,0
2190,-3.0,0
2191,-3.0,0
2192,-3.0,0
2193,-3.0,0
2194,-3.0,0
2195,-2.0,0
2196,-2.0,0
2197,-2.0,0
2198,-2.0,0
2199,-2.0,0
2200,-2.0,0
2201,-2.0,0
2202,-2.0,0
2203,-2.0,0
2204,-1.0,0
2205,-1.0,0
2206,-1.0,0
2207,-1.0,0
2208,-1.0,0
2209,-1.0,0
2210,-1.0,0
2211,0.0,0
2212,0.0,0
2213,0.0,0
2214,0.0,0
2215,-1.0,0
2216,-1.0,0
2217,-1.0,0
2218,-1.0,0
2219,-1.0,0
2220,0.0,0
2221,0.0,0
2222,1.0,0
2223,1.0,0
2224,1.0,0
2225,1.0,0
2226,0.0,0
2227,0.0,0
2228,1.0,0
2229,1.0,0
2230,1.0,0
2231,0.0,0
2232,0.0,0
2233,0.0,0
2234,0.0,0
2235,0.0,0
2236,0.0,0
2237,0.0,0
2238,0.0,0
2239,0.0,0
2240,0.0,0
2241,1.0,0
2242,0.0,0
2243,-1.0,0
2244,-2.0,0
2245,6.0,0
2246,26.0,0
2247,46.0,0
2248,59.0,0
2249,61.0,0
2250,52.0,0
2251,34.0,0
2252,15.0,0
2253,3.0,0
2254,0.0,0
2255,-3.0,0
2256,-6.0,0
2257,-6.0,0
2258,-6.0,0
2259,-6.0,0
2260,-5.0,0
2261,-3.0,0
2262,-3.0,0
2263,-3.0,0
2264,-3.0,0
2265,-2.0,0
2266,-2.0,0
2267,-2.0,0
2268,-1.0,0
2269,-1.0,0
2270,-1.0,0
2271,0.0,0
2272,0.0,0
2273,0.0,0
2274,0.0,0
2275,1.0,0
2276,1.0,0
2277,1.0,0
2278,1.0,0
2279,1.0,0
2280,1.0,0
2281,1.0,0
2282,1.0,0
2283,1.0,0
2284,1.0,0
2285,1.0,0
2286,1.0,0
2287,1.0,0
2288,1.0,0
2289,1.0,0
2290,2.0,0
2291,1.0,0
2292,0.0,0
2293,0.0,0
2294,0.0,0
2295,-3.0,0
2296,-7.0,0
2297,-11.0,0
2298,-12.0,0
2299,-15.0,0
2300,-23.0,0
2301,-29.0,0
2302,-36.0,0
2303,-36.0,0
2304,-37.0,0
2305,-40.0,0
2306,-40.0,0
2307,-30.0,0
2308,-10.0,0
2309,8.0,0
2310,22.0,0
2311,26.0,0
2312,28.0,0
2313,29.0,0
2314,29.0,0
2315,29.0,0
2316,29.0,0
2317,28.0,0
2318,28.0,0
2319,28.0,0
2320,28.0,0
2321,27.0,0
2322,27.0,0
2323,26.0,0
2324,26.0,0
2325,24.0,0
2326,23.0,0
2327,23.0,0
2328,22.0,0
2329,21.0,0
2330,21.0,0
2331,20.0,0
2332,18.0,0
2333,17.0,0
2334,16.0,0
2335,15.0,0
2336,13.0,0
2337,12.0,0
2338,10.0,0
2339,8.0,0
2340,7.0,0
2341,6.0,0
2342,3.0,0
2343,2.0,0
2344,1.0,0
2345,1.0,0
2346,0.0,0
2347,0.0,0
2348,0.0,0
2349,0.0,0
2350,0.0,0
2351,0.0,0
2352,0.0,0
2353,0.0,0
2354,-1.0,0
2355,-1.0,0
2356,0.0,0
2357,0.0,0
2358,-1.0,0
2359,-1.0,0
2360,-1.0,0
2361,-1.0,0
2362,-1.0,0
2363,-1.0,0
2364,-1.0,0
2365,-1.0,0
2366,-1.0,0
2367,-1.0,0
2368,-1.0,0
2369,-1.0,0
2370,-1.0,0
2371,-1.0,0
2372,-1.0,0
2373,-1.0,0
2374,-1.0,0
2375,-1.0,0
2376,-2.0,0
2377,-2.0,0
2378,-1.0,0
2379,-1.0,0
2380,-1.0,0
2381,-2.0,0
2382,-2.0,0
2383,-1.0,0
2384,-1.0,0
2385,-1.0,0
2386,-1.0,0
2387,-1.0,0
2388,-1.0,0
2389,-1.0,0
2390,-1.0,0
2391,-1.0,0
2392,-1.0,0
2393,-1.0,0
2394,-2.0,0
2395,-2.0,0
2396,-1.0,0
2397,-1.0,0
2398,-1.0,0
2399,-2.0,0
2400,-3.0,0
2401,-3.0,0
2402,-4.0,0
2403,-3.0,0
2404,-2.0,0
2405,-2.0,0
2406,-1.0,0
2407,-1.0,0
2408,-1.0,0
2409,-1.0,0
2410,-2.0,0
2411,-2.0,0
2412,-2.0,0
2413,-2.0,0
2414,-2.0,0
2415,-2.0,0
2416,-2.0,0
2417,-2.0,0
2418,-1.0,0
2419,-1.0,0
2420,-2.0,0
2421,-2.0,0
2422,-2.0,0
2423,-2.0,0
2424,-2.0,0
2425,-2.0,0
2426,-4.0,0
2427,-9.0,0
2428,-6.0,0
2429,7.0,0
2430,31.0,0
2431,52.0,0
2432,58.0,0
2433,54.0,0
2434,38.0,0
2435,18.0,0
2436,2.0,0
2437,-5.0,0
2438,-10.0,0
2439,-11.0,0
2440,-13.0,0
2441,-13.0,0
2442,-13.0,0
2443,-13.0,0
2444,-13.0,0
2445,-13.0,0
2446,-12.0,0
2447,-12.0,0
2448,-12.0,0
2449,-12.0,0
2450,-11.0,0
2451,-10.0,0
2452,-10.0,0
2453,-11.0,0
2454,-11.0,0
2455,-10.0,0
2456,-10.0,0
2457,-9.0,0
2458,-8.0,0
2459,-9.0,0
2460,-10.0,0
2461,-10.0,0
2462,-11.0,0
2463,-12.0,0
2464,-12.0,0
2465,-12.0,0
2466,-12.0,0
2467,-12.0,0
2468,-13.0,0
2469,-12.0,0
2470,-12.0,0
2471,-12.0,0
2472,-12.0,0
2473,-11.0,0
2474,-11.0,0
2475,-11.0,0
2476,-9.0,0
2477,-9.0,0
2478,-8.0,0
2479,-7.0,0
2480,-7.0,0
2481,-7.0,0
2482,-7.0,0
2483,-7.0,0
2484,-7.0,0
2485,-6.0,0
2486,-6.0,0
2487,-6.0,0
2488,-6.0,0
2489,-6.0,0
2490,-6.0,0
2491,-4.0,0
2492,-4.0,0
2493,-4.0,0
2494,-4.0,0
2495,-4.0,0
2496,-4.0,0
2497,-4.0,0
2498,-3.0,0
2499,-2.0,0
2500,-1.0,0
2501,0.0,0
2502,0.0,0
2503,0.0,0
2504,0.0,0
2505,0.0,0
2506,0.0,0
2507,0.0,0
2508,0.0,0
2509,0.0,0
2510,0.0,0
2511,0.0,0
2512,0.0,0
2513,0.0,0
2514,0.0,0
2515,0.0,0
2516,0.0,0
2517,0.0,0
2518,0.0,0
2519,0.0,0
2520,0.0,0
2521,0.0,0
2522,0.0,0
2523,-6.0,0
2524,-4.0,0
2525,7.0,0
2526,27.0,0
2527,48.0,0
2528,57.0,0
2529,56.0,0
2530,43.0,0
2531,24.0,0
2532,6.0,0
2533,-1.0,0
2534,-5.0,0
2535,-8.0,0
2536,-10.0,0
2537,-10.0,0
2538,-10.0,0
2539,-9.0,0
2540,-8.0,0
2541,-8.0,0
2542,-8.0,0
2543,-8.0,0
2544,-8.0,0
2545,-7.0,0
2546,-7.0,0
2547,-6.0,0
2548,-6.0,0
2549,-6.0,0
2550,-6.0,0
2551,-5.0,0
2552,-4.0,0
2553,-4.0,0
2554,-4.0,0
2555,-4.0,0
2556,-3.0,0
2557,-3.0,0
2558,-4.0,0
2559,-5.0,0
2560,-5.0,0
2561,-5.0,0
2562,-6.0,0
2563,-6.0,0
2564,-6.0,0
2565,-6.0,0
2566,-5.0,0
2567,-5.0,0
2568,-4.0,0
2569,-3.0,0
2570,-3.0,0
2571,-3.0,0
2572,-1.0,0
2573,-1.0,0
2574,-1.0,0
2575,-1.0,0
2576,-1.0,0
2577,-1.0,0
2578,-1.0,0
2579,-1.0,0
2580,-1.0,0
2581,-1.0,0
2582,-1.0,0
2583,0.0,0
2584,0.0,0
2585,0.0,0
2586,0.0,0
2587,0.0,0
2588,-1.0,0
2589,-1.0,0
2590,-1.0,0
2591,0.0,0
2592,0.0,0
2593,0.0,0
2594,1.0,0
2595,1.0,0
2596,1.0,0
2597,1.0,0
2598,1.0,0
2599,1.0,0
2600,2.0,0
2601,1.0,0
2602,1.0,0
2603,1.0,0
2604,1.0,0
2605,1.0,0
2606,2.0,0
2607,2.0,0
2608,2.0,0
2609,1.0,0
2610,1.0,0
2611,0.0,0
2612,0.0,0
2613,0.0,0
2614,0.0,0
2615,0.0,0
2616,-4.0,0
2617,-1.0,0
2618,12.0,0
2619,34.0,0
2620,52.0,0
2621,60.0,0
2622,57.0,0
2623,43.0,0
2624,24.0,0
2625,7.0,0
2626,-1.0,0
2627,-4.0,0
2628,-7.0,0
2629,-8.0,0
2630,-8.0,0
2631,-8.0,0
2632,-8.0,0
2633,-8.0,0
2634,-8.0,0
2635,-8.0,0
2636,-7.0,0
2637,-7.0,0
2638,-6.0,0
2639,-6.0,0
2640,-6.0,0
2641,-6.0,0
2642,-5.0,0
2643,-5.0,0
2644,-6.0,0
2645,-5.0,0
2646,-5.0,0
2647,-5.0,0
2648,-5.0,0
2649,-5.0,0
2650,-5.0,0
2651,-5.0,0
2652,-6.0,0
2653,-6.0,0
2654,-6.0,0
2655,-6.0,0
2656,-6.0,0
2657,-6.0,0
2658,-6.0,0
2659,-6.0,0
2660,-6.0,0
2661,-6.0,0
2662,-4.0,0
2663,-4.0,0
2664,-3.0,0
2665,-3.0,0
2666,-3.0,0
2667,-2.0,0
2668,-2.0,0
2669,-2.0,0
2670,-2.0,0
2671,-1.0,0
2672,-1.0,0
2673,-1.0,0
2674,-1.0,0
2675,-1.0,0
2676,0.0,0
2677,0.0,0
2678,0.0,0
2679,0.0,0
2680,0.0,0
2681,0.0,0
2682,-1.0,0
2683,0.0,0
2684,0.0,0
2685,0.0,0
2686,0.0,0
2687,0.0,0
2688,1.0,0
2689,1.0,0
2690,1.0,0
2691,1.0,0
2692,1.0,0
2693,1.0,0
2694,1.0,0
2695,1.0,0
2696,2.0,0
2697,2.0,0
2698,1.0,0
2699,1.0,0
2700,0.0,0
2701,0.0,0
2702,0.0,0
2703,0.0,0
2704,0.0,0
2705,0.0,0
2706,0.0,0
2707,0.0,0
2708,0.0,0
2709,-3.0,0
2710,-6.0,0
2711,0.0,0
2712,17.0,0
2713,38.0,0
2714,56.0,0
2715,60.0,0
2716,53.0,0
2717,37.0,0
2718,18.0,0
2719,4.0,0
2720,-1.0,0
2721,-4.0,0
2722,-7.0,0
2723,-7.0,0
2724,-7.0,0
2725,-7.0,0
2726,-6.0,0
2727,-6.0,0
2728,-5.0,0
2729,-4.0,0
2730,-3.0,0
2731,-3.0,0
2732,-3.0,0
2733,-3.0,0
2734,-2.0,0
2735,-1.0,0
2736,-1.0,0
2737,0.0,0
2738,0.0,0
2739,0.0,0
2740,0.0,0
2741,0.0,0
2742,0.0,0
2743,0.0,0
2744,0.0,0
2745,0.0,0
2746,0.0,0
2747,0.0,0
2748,0.0,0
2749,0.0,0
2750,0.0,0
2751,0.0,0
2752,0.0,0
2753,0.0,0
2754,1.0,0
2755,1.0,0
2756,1.0,0
2757,1.0,0
2758,2.0,0
2759,2.0,0
2760,2.0,0
2761,2.0,0
2762,3.0,0
2763,2.0,0
2764,2.0,0
2765,3.0,0
2766,3.0,0
2767,3.0,0
2768,3.0,0
2769,3.0,0
2770,3.0,0
2771,4.0,0
2772,4.0,0
2773,3.0,0
2774,3.0,0
2775,3.0,0
2776,3.0,0
2777,3.0,0
2778,4.0,0
2779,5.0,0
2780,6.0,0
2781,7.0,0
2782,7.0,0
2783,7.0,0
2784,7.0,0
2785,7.0,0
2786,7.0,0
2787,7.0,0
2788,7.0,0
2789,7.0,0
2790,7.0,0
2791,8.0,0
2792,8.0,0
2793,8.0,0
2794,8.0,0
2795,8.0,0
2796,8.0,0
2797,7.0,0
2798,8.0,0
2799,8.0,0
2800,8.0,0
2801,7.0,0
2802,5.0,0
2803,2.0,0
2804,8.0,0
2805,24.0,0
2806,47.0,0
2807,65.0,0
2808,69.0,0
2809,66.0,0
2810,49.0,0
2811,28.0,0
2812,11.0,0
2813,2.0,0
2814,0.0,0
2815,-3.0,0
2816,-3.0,0
2817,-3.0,0
2818,-3.0,0
2819,-3.0,0
2820,-3.0,0
2821,-3.0,0
2822,-4.0,0
2823,-3.0,0
2824,-3.0,0
2825,-4.0,0
2826,-3.0,0
2827,-3.0,0
2828,-3.0,0
2829,-3.0,0
2830,-2.0,0
2831,-2.0,0
2832,-2.0,0
2833,-2.0,0
2834,-2.0,0
2835,-2.0,0
2836,-2.0,0
2837,-3.0,0
2838,-3.0,0
2839,-3.0,0
2840,-3.0,0
2841,-5.0,0
2842,-6.0,0
2843,-6.0,0
2844,-6.0,0
2845,-6.0,0
2846,-6.0,0
2847,-6.0,0
2848,-6.0,0
2849,-6.0,0
2850,-5.0,0
2851,-5.0,0
2852,-6.0,0
2853,-5.0,0
2854,-5.0,0
2855,-4.0,0
2856,-4.0,0
2857,-4.0,0
2858,-5.0,0
2859,-5.0,0
2860,-4.0,0
2861,-4.0,0
2862,-4.0,0
2863,-3.0,0
2864,-3.0,0
2865,-3.0,0
2866,-3.0,0
2867,-3.0,0
2868,-5.0,0
2869,-6.0,0
2870,-6.0,0
2871,-5.0,0
2872,-3.0,0
2873,-3.0,0
2874,-2.0,0
2875,-2.0,0
2876,-1.0,0
2877,-1.0,0
2878,-1.0,0
2879,-2.0,0
2880,-1.0,0
2881,-1.0,0
2882,-1.0,0
2883,-1.0,0
2884,-1.0,0
2885,-1.0,0
2886,-1.0,0
2887,-1.0,0
2888,0.0,0
2889,0.0,0
2890,-1.0,0
2891,-1.0,0
2892,-1.0,0
2893,-1.0,0
2894,-1.0,0
2895,-1.0,0
2896,-4.0,0
2897,-8.0,0
2898,1.0,0
2899,19.0,0
2900,44.0,0
2901,57.0,0
2902,59.0,0
2903,50.0,0
2904,32.0,0
2905,11.0,0
2906,0.0,0
2907,-6.0,0
2908,-8.0,0
2909,-10.0,0
2910,-11.0,0
2911,-12.0,0
2912,-12.0,0
2913,-12.0,0
2914,-11.0,0
2915,-11.0,0
2916,-11.0,0
2917,-10.0,0
2918,-10.0,0
2919,-9.0,0
2920,-8.0,0
2921,-8.0,0
2922,-8.0,0
2923,-7.0,0
2924,-7.0,0
2925,-7.0,0
2926,-7.0,0
2927,-7.0,0
2928,-7.0,0
2929,-7.0,0
2930,-7.0,0
2931,-7.0,0
2932,-7.0,0
2933,-7.0,0
2934,-8.0,0
2935,-7.0,0
2936,-7.0,0
2937,-7.0,0
2938,-7.0,0
2939,-7.0,0
2940,-7.0,0
2941,-6.0,0
2942,-6.0,0
2943,-5.0,0
2944,-5.0,0
2945,-5.0,0
2946,-6.0,0
2947,-6.0,0
2948,-6.0,0
2949,-5.0,0
2950,-5.0,0
2951,-5.0,0
2952,-5.0,0
2953,-4.0,0
2954,-4.0,0
2955,-3.0,0
2956,-3.0,0
2957,-4.0,0
2958,-3.0,0
2959,-3.0,0
2960,-3.0,0
2961,-4.0,0
2962,-4.0,0
2963,-4.0,0
2964,-5.0,0
2965,-5.0,0
2966,-4.0,0
2967,-2.0,0
2968,-1.0,0
2969,0.0,0
2970,0.0,0
2971,0.0,0
2972,-1.0,0
2973,-1.0,0
2974,-1.0,0
2975,0.0,0
2976,0.0,0
2977,-1.0,0
2978,0.0,0
2979,0.0,0
2980,-1.0,0
2981,0.0,0
2982,0.0,0
2983,0.0,0
2984,-1.0,0
2985,-1.0,0
2986,-1.0,0
2987,-1.0,0
2988,0.0,0
2989,0.0,0
2990,-3.0,0
2991,-8.0,0
2992,0.0,0
2993,17.0,0
2994,40.0,0
2995,55.0,0
2996,59.0,0
2997,52.0,0
2998,35.0,0
2999,15.0,0
3000,2.0,0
3001,-4.0,0
3002,-7.0,0
3003,-10.0,0
3004,-12.0,0
3005,-12.0,0
3006,-12.0,0
3007,-12.0,0
3008,-12.0,0
3009,-11.0,0
3010,-11.0,0
3011,-11.0,0
3012,-11.0,0
3013,-10.0,0
3014,-9.0,0
3015,-8.0,0
3016,-8.0,0
3017,-8.0,0
3018,-7.0,0
3019,-7.0,0
3020,-7.0,0
3021,-7.0,0
3022,-7.0,0
3023,-7.0,0
3024,-7.0,0
3025,-7.0,0
3026,-8.0,0
3027,-8.0,0
3028,-8.0,0
3029,-8.0,0
3030,-8.0,0
3031,-8.0,0
3032,-7.0,0
3033,-7.0,0
3034,-7.0,0
3035,-7.0,0
3036,-7.0,0
3037,-6.0,0
3038,-6.0,0
3039,-6.0,0
3040,-6.0,0
3041,-6.0,0
3042,-6.0,0
3043,-6.0,0
3044,-4.0,0
3045,-5.0,0
3046,-5.0,0
3047,-5.0,0
3048,-5.0,0
3049,-5.0,0
3050,-3.0,0
3051,-3.0,0
3052,-3.0,0
3053,-3.0,0
3054,-3.0,0
3055,-3.0,0
3056,-2.0,0
3057,-3.0,0
3058,-4.0,0
3059,-5.0,0
3060,-3.0,0
3061,-2.0,0
3062,-1.0,0
3063,0.0,0
3064,0.0,0
3065,-1.0,0
3066,-1.0,0
3067,-1.0,0
3068,0.0,0
3069,0.0,0
3070,0.0,0
3071,0.0,0
3072,0.0,0
3073,0.0,0
3074,0.0,0
3075,0.0,0
3076,0.0,0
3077,0.0,0
3078,0.0,0
3079,0.0,0
3080,0.0,0
3081,0.0,0
3082,0.0,0
3083,0.0,0
3084,-1.0,0
3085,-6.0,0
3086,-5.0,0
3087,5.0,0
3088,25.0,0
3089,46.0,0
3090,56.0,0
3091,55.0,0
3092,43.0,0
3093,25.0,0
3094,8.0,0
3095,-2.0,0
3096,-6.0,0
3097,-9.0,0
3098,-11.0,0
3099,-12.0,0
3100,-12.0,0
3101,-12.0,0
3102,-11.0,0
3103,-11.0,0
3104,-11.0,0
3105,-11.0,0
3106,-10.0,0
3107,-10.0,0
3108,-9.0,0
3109,-8.0,0
3110,-7.0,0
3111,-7.0,0
3112,-6.0,0
3113,-6.0,0
3114,-6.0,0
3115,-6.0,0
3116,-7.0,0
3117,-7.0,0
3118,-6.0,0
3119,-6.0,0
3120,-7.0,0
3121,-7.0,0
3122,-7.0,0
3123,-7.0,0
3124,-6.0,0
3125,-6.0,0
3126,-6.0,0
3127,-6.0,0
3128,-6.0,0
3129,-4.0,0
3130,-4.0,0
3131,-3.0,0
3132,-3.0,0
3133,-3.0,0
3134,-3.0,0
3135,-3.0,0
3136,-3.0,0
3137,-3.0,0
3138,-2.0,0
3139,-2.0,0
3140,-3.0,0
3141,-2.0,0
3142,-2.0,0
3143,-2.0,0
3144,-2.0,0
3145,-2.0,0
3146,-2.0,0
3147,-2.0,0
3148,-1.0,0
3149,-1.0,0
3150,-2.0,0
3151,-2.0,0
3152,-2.0,0
3153,-3.0,0
3154,-2.0,0
3155,0.0,0
3156,0.0,0
3157,0.0,0
3158,0.0,0
3159,0.0,0
3160,0.0,0
3161,0.0,0
3162,0.0,0
3163,0.0,0
3164,1.0,0
3165,1.0,0
3166,0.0,0
3167,0.0,0
3168,0.0,0
3169,1.0,0
3170,1.0,0
3171,1.0,0
3172,1.0,0
3173,1.0,0
3174,1.0,0
3175,1.0,0
3176,1.0,0
3177,0.0,0
3178,0.0,0
3179,-3.0,0
3180,-1.0,0
3181,12.0,0
3182,33.0,0
3183,51.0,0
3184,59.0,0
3185,56.0,0
3186,43.0,0
3187,23.0,0
3188,7.0,0
3189,-1.0,0
3190,-5.0,0
3191,-8.0,0
3192,-9.0,0
3193,-10.0,0
3194,-10.0,0
3195,-9.0,0
3196,-8.0,0
3197,-8.0,0
3198,-8.0,0
3199,-7.0,0
3200,-7.0,0
3201,-7.0,0
3202,-7.0,0
3203,-6.0,0
3204,-6.0,0
3205,-4.0,0
3206,-4.0,0
3207,-3.0,0
3208,-3.0,0
3209,-3.0,0
3210,-3.0,0
3211,-3.0,0
3212,-2.0,0
3213,-2.0,0
3214,-2.0,0
3215,-2.0,0
3216,-2.0,0
3217,-3.0,0
3218,-3.0,0
3219,-3.0,0
3220,-3.0,0
3221,-3.0,0
3222,-3.0,0
3223,-3.0,0
3224,-2.0,0
3225,-2.0,0
3226,-2.0,0
3227,-1.0,0
3228,-1.0,0
3229,-1.0,0
3230,-1.0,0
3231,0.0,0
3232,0.0,0
3233,-1.0,0
3234,-1.0,0
3235,0.0,0
3236,0.0,0
3237,0.0,0
3238,0.0,0
3239,0.0,0
3240,0.0,0
3241,0.0,0
3242,0.0,0
3243,0.0,0
3244,0.0,0
3245,0.0,0
3246,0.0,0
3247,-1.0,0
3248,0.0,0
3249,0.0,0
3250,0.0,0
3251,1.0,0
3252,2.0,0
3253,2.0,0
3254,2.0,0
3255,2.0,0
3256,2.0,0
3257,2.0,0
3258,2.0,0
3259,1.0,0
3260,1.0,0
3261,2.0,0
3262,2.0,0
3263,2.0,0
3264,2.0,0
3265,2.0,0
3266,2.0,0
3267,2.0,0
3268,2.0,0
3269,2.0,0
3270,1.0,0
3271,0.0,0
3272,-1.0,0
3273,-3.0,0
3274,0.0,0
3275,15.0,0
3276,35.0,0
3277,54.0,0
3278,58.0,0
3279,54.0,0
3280,38.0,0
3281,19.0,0
3282,3.0,0
3283,-2.0,0
3284,-6.0,0
3285,-8.0,0
3286,-8.0,0
3287,-9.0,0
3288,-8.0,0
3289,-8.0,0
3290,-8.0,0
3291,-8.0,0
3292,-7.0,0
3293,-6.0,0
3294,-6.0,0
3295,-6.0,0
3296,-4.0,0
3297,-3.0,0
3298,-3.0,0
3299,-2.0,0
3300,-1.0,0
3301,-1.0,0
3302,-1.0,0
3303,0.0,0
3304,0.0,0
3305,0.0,0
3306,0.0,0
3307,0.0,0
3308,0.0,0
3309,0.0,0
3310,0.0,0
3311,0.0,0
3312,0.0,0
3313,0.0,0
3314,0.0,0
3315,0.0,0
3316,0.0,0
3317,0.0,0
3318,1.0,0
3319,1.0,0
3320,1.0,0
3321,1.0,0
3322,1.0,0
3323,2.0,0
3324,2.0,0
3325,2.0,0
3326,2.0,0
3327,2.0,0
3328,2.0,0
3329,2.0,0
3330,2.0,0
3331,3.0,0
3332,3.0,0
3333,3.0,0
3334,3.0,0
3335,3.0,0
3336,4.0,0
3337,3.0,0
3338,3.0,0
3339,2.0,0
3340,2.0,0
3341,3.0,0
3342,4.0,0
3343,6.0,0
3344,7.0,0
3345,7.0,0
3346,7.0,0
3347,7.0,0
3348,7.0,0
3349,6.0,0
3350,6.0,0
3351,6.0,0
3352,6.0,0
3353,6.0,0
3354,6.0,0
3355,6.0,0
3356,6.0,0
3357,5.0,0
3358,5.0,0
3359,5.0,0
3360,4.0,0
3361,4.0,0
3362,4.0,0
3363,3.0,0
3364,2.0,0
3365,1.0,0
3366,0.0,0
3367,1.0,0
3368,15.0,0
3369,39.0,0
3370,59.0,0
3371,64.0,0
3372,62.0,0
3373,46.0,0
3374,26.0,0
3375,8.0,0
3376,0.0,0
3377,-2.0,0
3378,-5.0,0
3379,-6.0,0
3380,-7.0,0
3381,-7.0,0
3382,-7.0,0
3383,-7.0,0
3384,-7.0,0
3385,-7.0,0
3386,-7.0,0
3387,-6.0,0
3388,-6.0,0
3389,-6.0,0
3390,-6.0,0
3391,-6.0,0
3392,-5.0,0
3393,-5.0,0
3394,-4.0,0
3395,-4.0,0
3396,-4.0,0
3397,-4.0,0
3398,-4.0,0
3399,-4.0,0
3400,-4.0,0
3401,-5.0,0
3402,-5.0,0
3403,-6.0,0
3404,-6.0,0
3405,-6.0,0
3406,-6.0,0
3407,-6.0,0
3408,-6.0,0
3409,-6.0,0
3410,-6.0,0
3411,-6.0,0
3412,-5.0,0
3413,-4.0,0
3414,-4.0,0
3415,-4.0,0
3416,-3.0,0
3417,-3.0,0
3418,-4.0,0
3419,-4.0,0
3420,-3.0,0
3421,-3.0,0
3422,-3.0,0
3423,-3.0,0
3424,-3.0,0
3425,-3.0,0
3426,-3.0,0
3427,-3.0,0
3428,-3.0,0
3429,-2.0,0
3430,-2.0,0
3431,-3.0,0
3432,-3.0,0
3433,-3.0,0
3434,-3.0,0
3435,-2.0,0
3436,-1.0,0
3437,0.0,0
3438,0.0,0
3439,-1.0,0
3440,-1.0,0
3441,-1.0,0
3442,0.0,0
3443,0.0,0
3444,0.0,0
3445,0.0,0
3446,0.0,0
3447,0.0,0
3448,0.0,0
3449,0.0,0
3450,-1.0,0
3451,-1.0,0
3452,-1.0,0
3453,-1.0,0
3454,-1.0,0
3455,-1.0,0
3456,-1.0,0
3457,-1.0,0
3458,-2.0,0
3459,-8.0,0
3460,-3.0,0
3461,12.0,0
3462,35.0,0
3463,54.0,0
3464,59.0,0
3465,54.0,0
3466,39.0,0
3467,19.0,0
3468,3.0,0
3469,-4.0,0
3470,-8.0,0
3471,-10.0,0
3472,-12.0,0
3473,-12.0,0
3474,-12.0,0
3475,-11.0,0
3476,-11.0,0
3477,-12.0,0
3478,-11.0,0
3479,-10.0,0
3480,-10.0,0
3481,-10.0,0
3482,-10.0,0
3483,-9.0,0
3484,-8.0,0
3485,-8.0,0
3486,-8.0,0
3487,-7.0,0
3488,-7.0,0
3489,-7.0,0
3490,-7.0,0
3491,-7.0,0
3492,-7.0,0
3493,-7.0,0
3494,-7.0,0
3495,-8.0,0
3496,-8.0,0
3497,-8.0,0
3498,-8.0,0
3499,-8.0,0
3500,-8.0,0
3501,-8.0,0
3502,-7.0,0
3503,-7.0,0
3504,-7.0,0
3505,-7.0,0
3506,-6.0,0
3507,-6.0,0
3508,-6.0,0
3509,-6.0,0
3510,-6.0,0
3511,-5.0,0
3512,-5.0,0
3513,-5.0,0
3514,-5.0,0
3515,-4.0,0
3516,-4.0,0
3517,-4.0,0
3518,-3.0,0
3519,-3.0,0
3520,-3.0,0
3521,-3.0,0
3522,-3.0,0
3523,-3.0,0
3524,-3.0,0
3525,-4.0,0
3526,-4.0,0
3527,-4.0,0
3528,-3.0,0
3529,-2.0,0
3530,-1.0,0
3531,-1.0,0
3532,-1.0,0
3533,-1.0,0
3534,-1.0,0
3535,-1.0,0
3536,-1.0,0
3537,0.0,0
3538,0.0,0
3539,-1.0,0
3540,-1.0,0
3541,0.0,0
3542,0.0,0
3543,0.0,0
3544,0.0,0
3545,0.0,0
3546,0.0,0
3547,0.0,0
3548,0.0,0
3549,0.0,0
3550,0.0,0
3551,-1.0,0
3552,-2.0,0
3553,-7.0,0
3554,-4.0,0
3555,7.0,0
3556,28.0,0
3557,47.0,0
3558,56.0,0
3559,55.0,0
3560,42.0,0
3561,23.0,0
3562,6.0,0
3563,-2.0,0
3564,-6.0,0
3565,-9.0,0
3566,-11.0,0
3567,-10.0,0
3568,-10.0,0
3569,-11.0,0
3570,-11.0,0
3571,-10.0,0
3572,-9.0,0
3573,-8.0,0
3574,-8.0,0
3575,-8.0,0
3576,-7.0,0
3577,-7.0,0
3578,-6.0,0
3579,-6.0,0
3580,-6.0,0
3581,-6.0,0
3582,-6.0,0
3583,-6.0,0
3584,-6.0,0
3585,-6.0,0
3586,-5.0,0
3587,-5.0,0
3588,-6.0,0
3589,-6.0,0
3590,-6.0,0
3591,-6.0,0
3592,-6.0,0
3593,-6.0,0
3594,-6.0,0
3595,-6.0,0
3596,-6.0,0
3597,-6.0,0
3598,-6.0,0
3599,-6.0,0
3600,-4.0,0
3601,-5.0,0
3602,-7.0,0
3603,-10.0,0
3604,-15.0,0
3605,-18.0,0
3606,-20.0,0
3607,-26.0,0
3608,-33.0,0
3609,-38.0,0
3610,-43.0,0
3611,-44.0,0
3612,-48.0,0
3613,-50.0,0
3614,-45.0,0
3615,-29.0,0
3616,-7.0,0
3617,9.0,0
3618,16.0,0
3619,18.0,0
3620,19.0,0
3621,19.0,0
3622,21.0,0
3623,22.0,0
3624,22.0,0
3625,23.0,0
3626,22.0,0
3627,22.0,0
3628,22.0,0
3629,22.0,0
3630,22.0,0
3631,21.0,0
3632,20.0,0
3633,20.0,0
3634,19.0,0
3635,18.0,0
3636,18.0,0
3637,17.0,0
3638,17.0,0
3639,15.0,0
3640,12.0,0
3641,11.0,0
3642,11.0,0
3643,9.0,0
3644,8.0,0
3645,6.0,0
3646,5.0,0
3647,3.0,0
3648,2.0,0
3649,1.0,0
3650,0.0,0
3651,0.0,0
3652,0.0,0
3653,-1.0,0
3654,-1.0,0
3655,-1.0,0
3656,-2.0,0
3657,-2.0,0
3658,-2.0,0
3659,-2.0,0
3660,-1.0,0
3661,-1.0,0
3662,-2.0,0
3663,-2.0,0
3664,-1.0,0
3665,-1.0,0
3666,-1.0,0
3667,-1.0,0
3668,-1.0,0
3669,-1.0,0
3670,-1.0,0
3671,-1.0,0
3672,-1.0,0
3673,-1.0,0
3674,-1.0,0
3675,-1.0,0
3676,-1.0,0
3677,-1.0,0
3678,-1.0,0
3679,-1.0,0
3680,0.0,0
3681,0.0,0
3682,-1.0,0
3683,-1.0,0
3684,-1.0,0
3685,0.0,0
3686,0.0,0
3687,0.0,0
3688,0.0,0
3689,0.0,0
3690,0.0,0
3691,0.0,0
3692,0.0,0
3693,0.0,0
3694,0.0,0
3695,0.0,0
3696,0.0,0
3697,0.0,0
3698,0.0,0
3699,0.0,0
3700,0.0,0
3701,0.0,0
3702,0.0,0
3703,0.0,0
3704,0.0,0
3705,0.0,0
3706,0.0,0
3707,0.0,0
3708,0.0,0
3709,0.0,0
3710,0.0,0
3711,0.0,0
3712,0.0,0
3713,0.0,0
3714,0.0,0
3715,-1.0,0
3716,0.0,0
3717,0.0,0
3718,0.0,0
3719,1.0,0
3720,1.0,0
3721,0.0,0
3722,0.0,0
3723,0.0,0
3724,0.0,0
3725,0.0,0
3726,0.0,0
3727,0.0,0
3728,0.0,0
3729,0.0,0
3730,0.0,0
3731,0.0,0
3732,0.0,0
3733,0.0,0
3734,0.0,0
3735,0.0,0
3736,0.0,0
3737,0.0,0
3738,0.0,0
3739,-3.0,0
3740,-4.0,0
3741,5.0,0
3742,22.0,0
3743,43.0,0
3744,56.0,0
3745,57.0,0
3746,46.0,0
3747,27.0,0
3748,9.0,0
3749,0.0,0
3750,-5.0,0
3751,-9.0,0
3752,-11.0,0
3753,-11.0,0
3754,-11.0,0
3755,-11.0,0
3756,-11.0,0
3757,-11.0,0
3758,-9.0,0
3759,-9.0,0
3760,-8.0,0
3761,-8.0,0
3762,-8.0,0
3763,-7.0,0
3764,-7.0,0
3765,-7.0,0
3766,-7.0,0
3767,-7.0,0
3768,-7.0,0
3769,-7.0,0
3770,-7.0,0
3771,-7.0,0
3772,-7.0,0
3773,-7.0,0
3774,-7.0,0
3775,-8.0,0
3776,-8.0,0
3777,-8.0,0
3778,-8.0,0
3779,-8.0,0
3780,-8.0,0
3781,-9.0,0
3782,-9.0,0
3783,-9.0,0
3784,-8.0,0
3785,-8.0,0
3786,-8.0,0
3787,-8.0,0
3788,-7.0,0
3789,-7.0,0
3790,-6.0,0
3791,-6.0,0
3792,-5.0,0
3793,-5.0,0
3794,-5.0,0
3795,-3.0,0
3796,-3.0,0
3797,-3.0,0
3798,-3.0,0
3799,-3.0,0
3800,-3.0,0
3801,-2.0,0
3802,-2.0,0
3803,-2.0,0
3804,-2.0,0
3805,-3.0,0
3806,-3.0,0
3807,-3.0,0
3808,-2.0,0
3809,0.0,0
3810,0.0,0
3811,0.0,0
3812,0.0,0
3813,0.0,0
3814,0.0,0
3815,1.0,0
3816,1.0,0
3817,1.0,0
3818,1.0,0
3819,1.0,0
3820,1.0,0
3821,2.0,0
3822,2.0,0
3823,2.0,0
3824,2.0,0
3825,1.0,0
3826,1.0,0
3827,2.0,0
3828,2.0,0
3829,2.0,0
3830,2.0,0
3831,1.0,0
3832,0.0,0
3833,-2.0,0
3834,-1.0,0
3835,11.0,0
3836,33.0,0
3837,53.0,0
3838,61.0,0
3839,59.0,0
3840,45.0,0
3841,24.0,0
3842,6.0,0
3843,0.0,0
3844,-4.0,0
3845,-7.0,0
3846,-8.0,0
3847,-8.0,0
3848,-8.0,0
3849,-8.0,0
3850,-8.0,0
3851,-7.0,0
3852,-7.0,0
3853,-7.0,0
3854,-7.0,0
3855,-6.0,0
3856,-6.0,0
3857,-5.0,0
3858,-5.0,0
3859,-3.0,0
3860,-3.0,0
3861,-2.0,0
3862,-2.0,0
3863,-2.0,0
3864,-2.0,0
3865,-1.0,0
3866,-1.0,0
3867,-1.0,0
3868,-2.0,0
3869,-2.0,0
3870,-3.0,0
3871,-3.0,0
3872,-3.0,0
3873,-3.0,0
3874,-3.0,0
3875,-2.0,0
3876,-2.0,0
3877,-2.0,0
3878,-1.0,0
3879,-1.0,0
3880,-1.0,0
3881,-1.0,0
3882,-1.0,0
3883,-1.0,0
3884,-1.0,0
3885,0.0,0
3886,0.0,0
3887,0.0,0
3888,0.0,0
3889,0.0,0
3890,0.0,0
3891,0.0,0
3892,0.0,0
3893,0.0,0
3894,0.0,0
3895,0.0,0
3896,0.0,0
3897,0.0,0
3898,0.0,0
3899,0.0,0
3900,0.0,0
3901,0.0,0
3902,0.0,0
3903,1.0,0
3904,2.0,0
3905,3.0,0
3906,2.0,0
3907,2.0,0
3908,2.0,0
3909,2.0,0
3910,3.0,0
3911,3.0,0
3912,3.0,0
3913,3.0,0
3914,3.0,0
3915,3.0,0
3916,3.0,0
3917,3.0,0
3918,3.0,0
3919,2.0,0
3920,2.0,0
3921,1.0,0
3922,1.0,0
3923,1.0,0
3924,1.0,0
3925,0.0,0
3926,0.0,0
3927,-5.0,0
3928,2.0,0
3929,20.0,0
3930,45.0,0
3931,58.0,0
3932,62.0,0
3933,53.0,0
3934,35.0,0
3935,16.0,0
3936,3.0,0
3937,-2.0,0
3938,-5.0,0
3939,-7.0,0
3940,-8.0,0
3941,-8.0,0
3942,-8.0,0
3943,-8.0,0
3944,-7.0,0
3945,-7.0,0
3946,-7.0,0
3947,-7.0,0
3948,-7.0,0
3949,-7.0,0
3950,-7.0,0
3951,-7.0,0
3952,-6.0,0
3953,-6.0,0
3954,-6.0,0
3955,-6.0,0
3956,-6.0,0
3957,-5.0,0
3958,-4.0,0
3959,-4.0,0
3960,-4.0,0
3961,-4.0,0
3962,-4.0,0
3963,-4.0,0
3964,-3.0,0
3965,-3.0,0
3966,-3.0,0
3967,-3.0,0
3968,-3.0,0
3969,-3.0,0
3970,-3.0,0
3971,-2.0,0
3972,-2.0,0
3973,-2.0,0
3974,-1.0,0
3975,0.0,0
3976,0.0,0
3977,0.0,0
3978,0.0,0
3979,0.0,0
3980,0.0,0
3981,0.0,0
3982,0.0,0
3983,1.0,0
3984,1.0,0
3985,1.0,0
3986,1.0,0
3987,2.0,0
3988,2.0,0
3989,2.0,0
3990,2.0,0
3991,2.0,0
3992,1.0,0
3993,1.0,0
3994,1.0,0
3995,2.0,0
3996,4.0,0
3997,6.0,0
3998,6.0,0
3999,7.0,0
4000,6.0,0
4001,6.0,0
4002,6.0,0
4003,6.0,0
4004,6.0,0
4005,5.0,0
4006,6.0,0
4007,6.0,0
4008,6.0,0
4009,6.0,0
4010,6.0,0
4011,6.0,0
4012,6.0,0
4013,6.0,0
4014,5.0,0
4015,5.0,0
4016,3.0,0
4017,3.0,0
4018,3.0,0
4019,1.0,0
4020,0.0,0
4021,3.0,0
4022,18.0,0
4023,41.0,0
4024,58.0,0
4025,64.0,0
4026,60.0,0
4027,44.0,0
4028,25.0,0
4029,8.0,0
4030,0.0,0
4031,-3.0,0
4032,-5.0,0
4033,-6.0,0
4034,-6.0,0
4035,-6.0,0
4036,-6.0,0
4037,-6.0,0
4038,-6.0,0
4039,-6.0,0
4040,-6.0,0
4041,-5.0,0
4042,-5.0,0
4043,-4.0,0
4044,-3.0,0
4045,-3.0,0
4046,-3.0,0
4047,-3.0,0
4048,-3.0,0
4049,-3.0,0
4050,-3.0,0
4051,-3.0,0
4052,-3.0,0
4053,-3.0,0
4054,-3.0,0
4055,-3.0,0
4056,-3.0,0
4057,-3.0,0
4058,-4.0,0
4059,-4.0,0
4060,-4.0,0
4061,-5.0,0
4062,-5.0,0
4063,-5.0,0
4064,-3.0,0
4065,-3.0,0
4066,-3.0,0
4067,-3.0,0
4068,-3.0,0
4069,-3.0,0
4070,-3.0,0
4071,-3.0,0
4072,-3.0,0
4073,-3.0,0
4074,-3.0,0
4075,-3.0,0
4076,-3.0,0
4077,-2.0,0
4078,-2.0,0
4079,-2.0,0
4080,-2.0,0
4081,-2.0,0
4082,-2.0,0
4083,-2.0,0
4084,-2.0,0
4085,-2.0,0
4086,-2.0,0
4087,-3.0,0
4088,-2.0,0
4089,0.0,0
4090,0.0,0
4091,0.0,0
4092,0.0,0
4093,0.0,0
4094,0.0,0
4095,0.0,0
4096,0.0,0
4097,0.0,0
4098,0.0,0
4099,0.0,0
4100,0.0,0
4101,0.0,0
4102,0.0,0
4103,0.0,0
4104,0.0,0
4105,0.0,0
4106,0.0,0
4107,0.0,0
4108,0.0,0
4109,0.0,0
4110,0.0,0
4111,0.0,0
4112,-1.0,0
4113,-6.0,0
4114,-3.0,0
4115,9.0,0
4116,31.0,0
4117,51.0,0
4118,60.0,0
4119,56.0,0
4120,42.0,0
4121,23.0,0
4122,7.0,0
4123,-1.0,0
4124,-6.0,0
4125,-9.0,0
4126,-11.0,0
4127,-11.0,0
4128,-11.0,0
4129,-11.0,0
4130,-11.0,0
4131,-11.0,0
4132,-11.0,0
4133,-11.0,0
4134,-10.0,0
4135,-9.0,0
4136,-8.0,0
4137,-8.0,0
4138,-7.0,0
4139,-7.0,0
4140,-7.0,0
4141,-7.0,0
4142,-7.0,0
4143,-6.0,0
4144,-6.0,0
4145,-7.0,0
4146,-6.0,0
4147,-6.0,0
4148,-7.0,0
4149,-7.0,0
4150,-7.0,0
4151,-7.0,0
4152,-7.0,0
4153,-7.0,0
4154,-7.0,0
4155,-7.0,0
4156,-7.0,0
4157,-7.0,0
4158,-7.0,0
4159,-6.0,0
4160,-6.0,0
4161,-6.0,0
4162,-5.0,0
4163,-4.0,0
4164,-4.0,0
4165,-5.0,0
4166,-5.0,0
4167,-4.0,0
4168,-4.0,0
4169,-4.0,0
4170,-3.0,0
4171,-3.0,0
4172,-3.0,0
4173,-3.0,0
4174,-3.0,0
4175,-3.0,0
4176,-3.0,0
4177,-3.0,0
4178,-3.0,0
4179,-4.0,0
4180,-4.0,0
4181,-4.0,0
4182,-4.0,0
4183,-3.0,0
4184,-1.0,0
4185,-1.0,0
4186,-1.0,0
4187,0.0,0
4188,0.0,0
4189,-1.0,0
4190,-1.0,0
4191,0.0,0
4192,0.0,0
4193,0.0,0
4194,-1.0,0
4195,0.0,0
4196,0.0,0
4197,0.0,0
4198,0.0,0
4199,0.0,0
4200,0.0,0
4201,0.0,0
4202,0.0,0
4203,0.0,0
4204,0.0,0
4205,0.0,0
4206,-1.0,0
4207,-4.0,0
4208,-5.0,0
4209,6.0,0
4210,26.0,0
4211,47.0,0
4212,58.0,0
4213,58.0,0
4214,46.0,0
4215,26.0,0
4216,8.0,0
4217,0.0,0
4218,-5.0,0
4219,-8.0,0
4220,-11.0,0
4221,-11.0,0
4222,-11.0,0
4223,-11.0,0
4224,-11.0,0
4225,-9.0,0
4226,-8.0,0
4227,-8.0,0
4228,-8.0,0
4229,-8.0,0
4230,-7.0,0
4231,-7.0,0
4232,-6.0,0
4233,-6.0,0
4234,-6.0,0
4235,-6.0,0
4236,-4.0,0
4237,-4.0,0
4238,-3.0,0
4239,-3.0,0
4240,-3.0,0
4241,-5.0,0
4242,-6.0,0
4243,-6.0,0
4244,-6.0,0
4245,-6.0,0
4246,-6.0,0
4247,-6.0,0
4248,-6.0,0
4249,-6.0,0
4250,-6.0,0
4251,-6.0,0
4252,-5.0,0
4253,-4.0,0
4254,-4.0,0
4255,-3.0,0
4256,-3.0,0
4257,-3.0,0
4258,-3.0,0
4259,-3.0,0
4260,-3.0,0
4261,-3.0,0
4262,-2.0,0
4263,-2.0,0
4264,-2.0,0
4265,-2.0,0
4266,-1.0,0
4267,-1.0,0
4268,-1.0,0
4269,0.0,0
4270,0.0,0
4271,0.0,0
4272,0.0,0
4273,0.0,0
4274,-1.0,0
4275,-1.0,0
4276,0.0,0
4277,0.0,0
4278,0.0,0
4279,1.0,0
4280,1.0,0
4281,1.0,0
4282,0.0,0
4283,1.0,0
4284,1.0,0
4285,0.0,0
4286,0.0,0
4287,0.0,0
4288,0.0,0
4289,0.0,0
4290,0.0,0
4291,0.0,0
4292,0.0,0
4293,0.0,0
4294,0.0,0
4295,0.0,0
4296,0.0,0
4297,0.0,0
4298,0.0,0
4299,0.0,0
4300,-2.0,0
4301,-5.0,0
4302,2.0,0
4303,20.0,0
4304,44.0,0
4305,58.0,0
4306,62.0,0
4307,53.0,0
4308,35.0,0
4309,14.0,0
4310,1.0,0
4311,-2.0,0
4312,-6.0,0
4313,-7.0,0
4314,-8.0,0
4315,-8.0,0
4316,-8.0,0
4317,-8.0,0
4318,-8.0,0
4319,-8.0,0
4320,-8.0,0
4321,-7.0,0
4322,-7.0,0
4323,-6.0,0
4324,-6.0,0
4325,-6.0,0
4326,-4.0,0
4327,-4.0,0
4328,-4.0,0
4329,-3.0,0
4330,-3.0,0
4331,-3.0,0
4332,-3.0,0
4333,-4.0,0
4334,-4.0,0
4335,-4.0,0
4336,-5.0,0
4337,-4.0,0
4338,-5.0,0
4339,-5.0,0
4340,-5.0,0
4341,-5.0,0
4342,-6.0,0
4343,-6.0,0
4344,-5.0,0
4345,-4.0,0
4346,-3.0,0
4347,-3.0,0
4348,-4.0,0
4349,-3.0,0
4350,-3.0,0
4351,-2.0,0
4352,-2.0,0
4353,-2.0,0
4354,-2.0,0
4355,-2.0,0
4356,-2.0,0
4357,-2.0,0
4358,-2.0,0
4359,-1.0,0
4360,-1.0,0
4361,-1.0,0
4362,0.0,0
4363,0.0,0
4364,0.0,0
4365,0.0,0
4366,0.0,0
4367,-1.0,0
4368,-1.0,0
4369,-1.0,0
4370,0.0,0
4371,0.0,0
4372,1.0,0
4373,1.0,0
4374,1.0,0
4375,1.0,0
4376,0.0,0
4377,0.0,0
4378,0.0,0
4379,0.0,0
4380,0.0,0
4381,0.0,0
4382,0.0,0
4383,0.0,0
4384,1.0,0
4385,0.0,0
4386,0.0,0
4387,0.0,0
4388,0.0,0
4389,0.0,0
4390,0.0,0
4391,0.0,0
4392,0.0,0
4393,0.0,0
4394,-5.0,0
4395,-5.0,0
4396,4.0,0
4397,25.0,0
4398,48.0,0
4399,58.0,0
4400,58.0,0
4401,46.0,0
4402,27.0,0
4403,8.0,0
4404,-1.0,0
4405,-6.0,0
4406,-8.0,0
4407,-10.0,0
4408,-11.0,0
4409,-11.0,0
4410,-11.0,0
4411,-10.0,0
4412,-10.0,0
4413,-10.0,0
4414,-9.0,0
4415,-8.0,0
4416,-8.0,0
4417,-8.0,0
4418,-7.0,0
4419,-7.0,0
4420,-6.0,0
4421,-6.0,0
4422,-6.0,0
4423,-5.0,0
4424,-4.0,0
4425,-6.0,0
4426,-6.0,0
4427,-6.0,0
4428,-6.0,0
4429,-6.0,0
4430,-6.0,0
4431,-6.0,0
4432,-6.0,0
4433,-6.0,0
4434,-6.0,0
4435,-6.0,0
4436,-6.0,0
4437,-6.0,0
4438,-6.0,0
4439,-4.0,0
4440,-3.0,0
4441,-3.0,0
4442,-3.0,0
4443,-3.0,0
4444,-2.0,0
4445,-2.0,0
4446,-2.0,0
4447,-2.0,0
4448,-2.0,0
4449,-2.0,0
4450,-2.0,0
4451,-2.0,0
4452,-2.0,0
4453,-2.0,0
4454,-1.0,0
4455,-1.0,0
4456,-1.0,0
4457,-1.0,0
4458,-1.0,0
4459,-1.0,0
4460,-2.0,0
4461,-2.0,0
4462,-1.0,0
4463,0.0,0
4464,0.0,0
4465,0.0,0
4466,0.0,0
4467,1.0,0
4468,1.0,0
4469,1.0,0
4470,1.0,0
4471,1.0,0
4472,1.0,0
4473,1.0,0
4474,1.0,0
4475,1.0,0
4476,1.0,0
4477,1.0,0
4478,1.0,0
4479,1.0,0
4480,1.0,0
4481,1.0,0
4482,1.0,0
4483,1.0,0
4484,1.0,0
4485,1.0,0
4486,0.0,0
4487,-4.0,0
4488,-1.0,0
4489,10.0,0
4490,32.0,0
4491,51.0,0
4492,60.0,0
4493,58.0,0
4494,45.0,0
4495,26.0,0
4496,8.0,0
4497,-1.0,0
4498,-5.0,0
4499,-8.0,0
4500,-10.0,0
4501,-9.0,0
4502,-9.0,0
4503,-9.0,0
4504,-9.0,0
4505,-9.0,0
4506,-8.0,0
4507,-7.0,0
4508,-7.0,0
4509,-7.0,0
4510,-6.0,0
4511,-6.0,0
4512,-6.0,0
4513,-5.0,0
4514,-4.0,0
4515,-3.0,0
4516,-3.0,0
4517,-3.0,0
4518,-3.0,0
4519,-3.0,0
4520,-4.0,0
4521,-4.0,0
4522,-5.0,0
4523,-5.0,0
4524,-6.0,0
4525,-6.0,0
4526,-6.0,0
4527,-6.0,0
4528,-6.0,0
4529,-6.0,0
4530,-4.0,0
4531,-4.0,0
4532,-3.0,0
4533,-2.0,0
4534,-2.0,0
4535,-1.0,0
4536,-1.0,0
4537,-1.0,0
4538,-1.0,0
4539,-1.0,0
4540,0.0,0
4541,0.0,0
4542,-1.0,0
4543,0.0,0
4544,0.0,0
4545,0.0,0
4546,0.0,0
4547,0.0,0
4548,0.0,0
4549,0.0,0
4550,0.0,0
4551,0.0,0
4552,0.0,0
4553,-1.0,0
4554,0.0,0
4555,0.0,0
4556,0.0,0
4557,1.0,0
4558,1.0,0
4559,2.0,0
4560,2.0,0
4561,2.0,0
4562,2.0,0
4563,2.0,0
4564,2.0,0
4565,2.0,0
4566,2.0,0
4567,1.0,0
4568,1.0,0
4569,1.0,0
4570,1.0,0
4571,1.0,0
4572,2.0,0
4573,1.0,0
4574,1.0,0
4575,1.0,0
4576,2.0,0
4577,2.0,0
4578,1.0,0
4579,0.0,0
4580,-3.0,0
4581,-1.0,0
4582,11.0,0
4583,33.0,0
4584,52.0,0
4585,62.0,0
4586,59.0,0
4587,45.0,0
4588,27.0,0
4589,10.0,0
4590,0.0,0
4591,-3.0,0
4592,-6.0,0
4593,-7.0,0
4594,-7.0,0
4595,-8.0,0
4596,-7.0,0
4597,-7.0,0
4598,-7.0,0
4599,-6.0,0
4600,-6.0,0
4601,-6.0,0
4602,-6.0,0
4603,-6.0,0
4604,-6.0,0
4605,-5.0,0
4606,-5.0,0
4607,-5.0,0
4608,-5.0,0
4609,-5.0,0
4610,-5.0,0
4611,-5.0,0
4612,-5.0,0
4613,-4.0,0
4614,-4.0,0
4615,-5.0,0
4616,-6.0,0
4617,-4.0,0
4618,-4.0,0
4619,-5.0,0
4620,-6.0,0
4621,-5.0,0
4622,-3.0,0
4623,-3.0,0
4624,-3.0,0
4625,-2.0,0
4626,-2.0,0
4627,-2.0,0
4628,-2.0,0
4629,-1.0,0
4630,0.0,0
4631,0.0,0
4632,0.0,0
4633,0.0,0
4634,0.0,0
4635,0.0,0
4636,0.0,0
4637,0.0,0
4638,1.0,0
4639,1.0,0
4640,1.0,0
4641,1.0,0
4642,2.0,0
4643,2.0,0
4644,1.0,0
4645,1.0,0
4646,1.0,0
4647,1.0,0
4648,1.0,0
4649,2.0,0
4650,5.0,0
4651,5.0,0
4652,5.0,0
4653,6.0,0
4654,6.0,0
4655,6.0,0
4656,6.0,0
4657,6.0,0
4658,7.0,0
4659,6.0,0
4660,6.0,0
4661,7.0,0
4662,7.0,0
4663,7.0,0
4664,8.0,0
4665,7.0,0
4666,7.0,0
4667,8.0,0
4668,8.0,0
4669,7.0,0
4670,7.0,0
4671,8.0,0
4672,7.0,0
4673,3.0,0
4674,3.0,0
4675,12.0,0
4676,31.0,0
4677,52.0,0
4678,66.0,0
4679,68.0,0
4680,61.0,0
4681,43.0,0
4682,23.0,0
4683,9.0,0
4684,2.0,0
4685,0.0,0
4686,-1.0,0
4687,-1.0,0
4688,-1.0,0
4689,-1.0,0
4690,-1.0,0
4691,-1.0,0
4692,-1.0,0
4693,0.0,0
4694,0.0,0
4695,0.0,0
4696,-1.0,0
4697,0.0,0
4698,0.0,0
4699,0.0,0
4700,0.0,0
4701,0.0,0
4702,0.0,0
4703,0.0,0
4704,0.0,0
4705,0.0,0
4706,0.0,0
4707,0.0,0
4708,0.0,0
4709,0.0,0
4710,0.0,0
4711,-1.0,0
4712,-1.0,0
4713,-1.0,0
4714,-1.0,0
4715,-1.0,0
4716,-1.0,0
4717,0.0,0
4718,0.0,0
4719,-1.0,0
4720,-1.0,0
4721,-1.0,0
4722,-1.0,0
4723,0.0,0
4724,0.0,0
4725,-1.0,0
4726,-1.0,0
4727,0.0,0
4728,0.0,0
4729,-1.0,0
4730,-1.0,0
4731,-1.0,0
4732,0.0,0
4733,0.0,0
4734,0.0,0
4735,0.0,0
4736,-1.0,0
4737,-1.0,0
4738,-2.0,0
4739,-2.0,0
4740,-2.0,0
4741,-1.0,0
4742,0.0,0
4743,0.0,0
4744,0.0,0
4745,0.0,0
4746,0.0,0
4747,0.0,0
4748,0.0,0
4749,0.0,0
4750,0.0,0
4751,0.0,0
4752,0.0,0
4753,0.0,0
4754,0.0,0
4755,0.0,0
4756,0.0,0
4757,0.0,0
4758,0.0,0
4759,0.0,0
4760,0.0,0
4761,0.0,0
4762,0.0,0
4763,0.0,0
4764,0.0,0
4765,-3.0,0
4766,-5.0,0
4767,3.0,0
4768,23.0,0
4769,46.0,0
4770,59.0,0
4771,61.0,0
4772,52.0,0
4773,33.0,0
4774,13.0,0
4775,0.0,0
4776,-5.0,0
4777,-8.0,0
4778,-11.0,0
4779,-11.0,0
4780,-11.0,0
4781,-11.0,0
4782,-11.0,0
4783,-11.0,0
4784,-11.0,0
4785,-11.0,0
4786,-9.0,0
4787,-9.0,0
4788,-8.0,0
4789,-8.0,0
4790,-9.0,0
4791,-8.0,0
4792,-8.0,0
4793,-7.0,0
4794,-7.0,0
4795,-7.0,0
4796,-7.0,0
4797,-7.0,0
4798,-7.0,0
4799,-7.0,0
4800,-7.0,0
4801,-7.0,0
4802,-7.0,0
4803,-8.0,0
4804,-8.0,0
4805,-7.0,0
4806,-7.0,0
4807,-7.0,0
4808,-7.0,0
4809,-7.0,0
4810,-7.0,0
4811,-7.0,0
4812,-6.0,0
4813,-6.0,0
4814,-6.0,0
4815,-6.0,0
4816,-6.0,0
4817,-6.0,0
4818,-6.0,0
4819,-6.0,0
4820,-6.0,0
4821,-6.0,0
4822,-6.0,0
4823,-5.0,0
4824,-5.0,0
4825,-4.0,0
4826,-4.0,0
4827,-4.0,0
4828,-3.0,0
4829,-3.0,0
4830,-3.0,0
4831,-5.0,0
4832,-5.0,0
4833,-5.0,0
4834,-4.0,0
4835,-3.0,0
4836,-2.0,0
4837,-1.0,0
4838,-1.0,0
4839,-1.0,0
4840,-1.0,0
4841,-1.0,0
4842,0.0,0
4843,0.0,0
4844,-1.0,0
4845,-1.0,0
4846,-1.0,0
4847,-1.0,0
4848,-1.0,0
4849,-1.0,0
4850,0.0,0
4851,0.0,0
4852,0.0,0
4853,0.0,0
4854,-1.0,0
4855,-1.0,0
4856,-1.0,0
4857,-1.0,0
4858,-1.0,0
4859,-5.0,0
4860,-8.0,0
4861,2.0,0
4862,23.0,0
4863,47.0,0
4864,58.0,0
4865,58.0,0
4866,47.0,0
4867,27.0,0
4868,9.0,0
4869,0.0,0
4870,-6.0,0
4871,-9.0,0
4872,-10.0,0
4873,-11.0,0
4874,-11.0,0
4875,-11.0,0
4876,-11.0,0
4877,-11.0,0
4878,-11.0,0
4879,-10.0,0
4880,-9.0,0
4881,-9.0,0
4882,-8.0,0
4883,-8.0,0
4884,-7.0,0
4885,-7.0,0
4886,-7.0,0
4887,-7.0,0
4888,-7.0,0
4889,-7.0,0
4890,-6.0,0
4891,-6.0,0
4892,-7.0,0
4893,-7.0,0
4894,-7.0,0
4895,-7.0,0
4896,-7.0,0
4897,-8.0,0
4898,-7.0,0
4899,-7.0,0
4900,-7.0,0
4901,-7.0,0
4902,-7.0,0
4903,-7.0,0
4904,-7.0,0
4905,-6.0,0
4906,-6.0,0
4907,-6.0,0
4908,-6.0,0
4909,-6.0,0
4910,-6.0,0
4911,-6.0,0
4912,-5.0,0
4913,-5.0,0
4914,-5.0,0
4915,-5.0,0
4916,-4.0,0
4917,-4.0,0
4918,-3.0,0
4919,-3.0,0
4920,-3.0,0
4921,-3.0,0
4922,-3.0,0
4923,-3.0,0
4924,-3.0,0
4925,-3.0,0
4926,-4.0,0
4927,-4.0,0
4928,-3.0,0
4929,-2.0,0
4930,-1.0,0
4931,0.0,0
4932,0.0,0
4933,0.0,0
4934,0.0,0
4935,0.0,0
4936,0.0,0
4937,0.0,0
4938,0.0,0
4939,0.0,0
4940,0.0,0
4941,0.0,0
4942,0.0,0
4943,0.0,0
4944,0.0,0
4945,0.0,0
4946,0.0,0
4947,0.0,0
4948,0.0,0
4949,0.0,0
4950,0.0,0
4951,0.0,0
4952,0.0,0
4953,-5.0,0
4954,-4.0,0
4955,8.0,0
4956,30.0,0
4957,50.0,0
4958,58.0,0
4959,57.0,0
4960,44.0,0
4961,24.0,0
4962,7.0,0
4963,-1.0,0
4964,-5.0,0
4965,-8.0,0
4966,-10.0,0
4967,-11.0,0
4968,-11.0,0
4969,-10.0,0
4970,-10.0,0
4971,-10.0,0
4972,-8.0,0
4973,-8.0,0
4974,-7.0,0
4975,-7.0,0
4976,-7.0,0
4977,-6.0,0
4978,-6.0,0
4979,-6.0,0
4980,-5.0,0
4981,-4.0,0
4982,-3.0,0
4983,-3.0,0
4984,-4.0,0
4985,-4.0,0
4986,-6.0,0
4987,-5.0,0
4988,-5.0,0
4989,-6.0,0
4990,-6.0,0
4991,-6.0,0
4992,-6.0,0
4993,-6.0,0
4994,-6.0,0
4995,-6.0,0
4996,-6.0,0
4997,-6.0,0
4998,-4.0,0
4999,-4.0,0
5000,-4.0,0
5001,-3.0,0
5002,-3.0,0
5003,-3.0,0
5004,-3.0,0
5005,-3.0,0
5006,-3.0,0
5007,-2.0,0
5008,-2.0,0
5009,-3.0,0
5010,-3.0,0
5011,-2.0,0
5012,-2.0,0
5013,-2.0,0
5014,-1.0,0
5015,-1.0,0
5016,-1.0,0
5017,-2.0,0
5018,-2.0,0
5019,-3.0,0
5020,-3.0,0
5021,-2.0,0
5022,-1.0,0
5023,0.0,0
5024,0.0,0
5025,0.0,0
5026,0.0,0
5027,0.0,0
5028,0.0,0
5029,0.0,0
5030,0.0,0
5031,0.0,0
5032,0.0,0
5033,0.0,0
5034,0.0,0
5035,0.0,0
5036,0.0,0
5037,0.0,0
5038,0.0,0
5039,0.0,0
5040,0.0,0
5041,0.0,0
5042,0.0,0
5043,0.0,0
5044,0.0,0
5045,0.0,0
5046,-4.0,0
5047,-3.0,0
5048,6.0,0
5049,26.0,0
5050,49.0,0
5051,60.0,0
5052,59.0,0
5053,47.0,0
5054,29.0,0
5055,11.0,0
5056,0.0,0
5057,-4.0,0
5058,-7.0,0
5059,-8.0,0
5060,-9.0,0
5061,-9.0,0
5062,-8.0,0
5063,-8.0,0
5064,-8.0,0
5065,-8.0,0
5066,-8.0,0
5067,-7.0,0
5068,-7.0,0
5069,-7.0,0
5070,-6.0,0
5071,-5.0,0
5072,-5.0,0
5073,-5.0,0
5074,-5.0,0
5075,-6.0,0
5076,-6.0,0
5077,-6.0,0
5078,-6.0,0
5079,-6.0,0
5080,-6.0,0
5081,-6.0,0
5082,-6.0,0
5083,-7.0,0
5084,-7.0,0
5085,-7.0,0
5086,-7.0,0
5087,-7.0,0
5088,-6.0,0
5089,-6.0,0
5090,-6.0,0
5091,-4.0,0
5092,-3.0,0
5093,-3.0,0
5094,-2.0,0
5095,-2.0,0
5096,-2.0,0
5097,-1.0,0
5098,-1.0,0
5099,-1.0,0
5100,0.0,0
5101,0.0,0
5102,0.0,0
5103,0.0,0
5104,0.0,0
5105,0.0,0
5106,0.0,0
5107,1.0,0
5108,1.0,0
5109,2.0,0
5110,1.0,0
5111,1.0,0
5112,1.0,0
5113,1.0,0
5114,1.0,0
5115,1.0,0
5116,2.0,0
5117,3.0,0
5118,5.0,0
5119,6.0,0
5120,6.0,0
5121,5.0,0
5122,5.0,0
5123,6.0,0
5124,6.0,0
5125,6.0,0
5126,6.0,0
5127,6.0,0
5128,6.0,0
5129,7.0,0
5130,7.0,0
5131,7.0,0
5132,7.0,0
5133,7.0,0
5134,7.0,0
5135,7.0,0
5136,7.0,0
5137,7.0,0
5138,6.0,0
5139,4.0,0
5140,1.0,0
5141,5.0,0
5142,20.0,0
5143,42.0,0
5144,60.0,0
5145,68.0,0
5146,66.0,0
5147,52.0,0
5148,32.0,0
5149,14.0,0
5150,4.0,0
5151,0.0,0
5152,-1.0,0
5153,-1.0,0
5154,-2.0,0
5155,-2.0,0
5156,-2.0,0
5157,-1.0,0
5158,-1.0,0
5159,-1.0,0
5160,-1.0,0
5161,-1.0,0
5162,0.0,0
5163,0.0,0
5164,0.0,0
5165,0.0,0
5166,0.0,0
5167,0.0,0
5168,0.0,0
5169,0.0,0
5170,0.0,0
5171,0.0,0
5172,0.0,0
5173,0.0,0
5174,0.0,0
5175,0.0,0
5176,0.0,0
5177,0.0,0
5178,-1.0,0
5179,-1.0,0
5180,-1.0,0
5181,-1.0,0
5182,-1.0,0
5183,-1.0,0
5184,-1.0,0
5185,-1.0,0
5186,0.0,0
5187,0.0,0
5188,-1.0,0
5189,-1.0,0
5190,-1.0,0
5191,-1.0,0
5192,-1.0,0
5193,-1.0,0
5194,-1.0,0
5195,-2.0,0
5196,-2.0,0
5197,-1.0,0
5198,-1.0,0
5199,-1.0,0
5200,-1.0,0
5201,-1.0,0
5202,-1.0,0
5203,-2.0,0
5204,-3.0,0
5205,-3.0,0
5206,-3.0,0
5207,-2.0,0
5208,-1.0,0
5209,0.0,0
5210,0.0,0
5211,0.0,0
5212,0.0,0
5213,0.0,0
5214,0.0,0
5215,0.0,0
5216,0.0,0
5217,0.0,0
5218,0.0,0
5219,0.0,0
5220,0.0,0
5221,0.0,0
5222,0.0,0
5223,0.0,0
5224,0.0,0
5225,0.0,0
5226,0.0,0
5227,0.0,0
5228,0.0,0
5229,0.0,0
5230,0.0,0
5231,-1.0,0
5232,-4.0,0
5233,-3.0,0
5234,10.0,0
5235,32.0,0
5236,52.0,0
5237,60.0,0
5238,58.0,0
5239,44.0,0
5240,25.0,0
5241,7.0,0
5242,-1.0,0
5243,-6.0,0
5244,-9.0,0
5245,-11.0,0
5246,-11.0,0
5247,-11.0,0
5248,-11.0,0
5249,-11.0,0
5250,-11.0,0
5251,-10.0,0
5252,-9.0,0
5253,-8.0,0
5254,-8.0,0
5255,-8.0,0
5256,-8.0,0
5257,-7.0,0
5258,-7.0,0
5259,-7.0,0
5260,-7.0,0
5261,-7.0,0
5262,-6.0,0
5263,-6.0,0
5264,-6.0,0
5265,-5.0,0
5266,-5.0,0
5267,-6.0,0
5268,-6.0,0
5269,-6.0,0
5270,-7.0,0
5271,-7.0,0
5272,-7.0,0
5273,-7.0,0
5274,-7.0,0
5275,-7.0,0
5276,-6.0,0
5277,-6.0,0
5278,-6.0,0
5279,-6.0,0
5280,-6.0,0
5281,-6.0,0
5282,-6.0,0
5283,-5.0,0
5284,-5.0,0
5285,-4.0,0
5286,-4.0,0
5287,-5.0,0
5288,-4.0,0
5289,-4.0,0
5290,-3.0,0
5291,-3.0,0
5292,-3.0,0
5293,-3.0,0
5294,-3.0,0
5295,-3.0,0
5296,-3.0,0
5297,-4.0,0
5298,-5.0,0
5299,-4.0,0
5300,-4.0,0
5301,-1.0,0
5302,-1.0,0
5303,0.0,0
5304,0.0,0
5305,0.0,0
5306,0.0,0
5307,-1.0,0
5308,0.0,0
5309,0.0,0
5310,0.0,0
5311,0.0,0
5312,0.0,0
5313,0.0,0
5314,0.0,0
5315,0.0,0
5316,0.0,0
5317,0.0,0
5318,0.0,0
5319,0.0,0
5320,0.0,0
5321,0.0,0
5322,0.0,0
5323,0.0,0
5324,-3.0,0
5325,-8.0,0
5326,-1.0,0
5327,15.0,0
5328,37.0,0
5329,56.0,0
5330,60.0,0
5331,55.0,0
5332,37.0,0
5333,17.0,0
5334,1.0,0
5335,-3.0,0
5336,-7.0,0
5337,-10.0,0
5338,-11.0,0
5339,-11.0,0
5340,-12.0,0
5341,-11.0,0
5342,-11.0,0
5343,-11.0,0
5344,-11.0,0
5345,-11.0,0
5346,-8.0,0
5347,-8.0,0
5348,-8.0,0
5349,-8.0,0
5350,-8.0,0
5351,-7.0,0
5352,-7.0,0
5353,-7.0,0
5354,-7.0,0
5355,-7.0,0
5356,-7.0,0
5357,-7.0,0
5358,-7.0,0
5359,-7.0,0
5360,-7.0,0
5361,-7.0,0
5362,-7.0,0
5363,-8.0,0
5364,-7.0,0
5365,-7.0,0
5366,-7.0,0
5367,-7.0,0
5368,-6.0,0
5369,-6.0,0
5370,-6.0,0
5371,-6.0,0
5372,-6.0,0
5373,-6.0,0
5374,-6.0,0
5375,-6.0,0
5376,-6.0,0
5377,-6.0,0
5378,-6.0,0
5379,-6.0,0
5380,-6.0,0
5381,-6.0,0
5382,-5.0,0
5383,-4.0,0
5384,-4.0,0
5385,-4.0,0
5386,-3.0,0
5387,-3.0,0
5388,-3.0,0
5389,-3.0,0
5390,-4.0,0
5391,-5.0,0
5392,-4.0,0
5393,-3.0,0
5394,-2.0,0
5395,-1.0,0
5396,0.0,0
5397,0.0,0
5398,-1.0,0
5399,-1.0,0
5400,0.0,0
5401,0.0,0
5402,0.0,0
5403,0.0,0
5404,0.0,0
5405,0.0,0
5406,0.0,0
5407,0.0,0
5408,0.0,0
5409,0.0,0
5410,0.0,0
5411,0.0,0
5412,0.0,0
5413,0.0,0
5414,-1.0,0
5415,-1.0,0
5416,-1.0,0
5417,-3.0,0
5418,-9.0,0
5419,-4.0,0
5420,12.0,0
5421,35.0,0
5422,54.0,0
5423,59.0,0
5424,54.0,0
5425,38.0,0
5426,18.0,0
5427,4.0,0
5428,-1.0,0
5429,-5.0,0
5430,-7.0,0
5431,-8.0,0
5432,-7.0,0
5433,-7.0,0
5434,-7.0,0
5435,-7.0,0
5436,-6.0,0
5437,-6.0,0
5438,-6.0,0
5439,-4.0,0
5440,-3.0,0
5441,-2.0,0
5442,-2.0,0
5443,-1.0,0
5444,-1.0,0
5445,-1.0,0
5446,0.0,0
5447,0.0,0
5448,0.0,0
5449,0.0,0
5450,0.0,0
5451,0.0,0
5452,0.0,0
5453,0.0,0
5454,0.0,0
5455,0.0,0
5456,0.0,0
5457,0.0,0
5458,0.0,0
5459,0.0,0
5460,0.0,0
5461,0.0,0
5462,0.0,0
5463,0.0,0
5464,0.0,0
5465,1.0,0
5466,1.0,0
5467,1.0,0
5468,1.0,0
5469,2.0,0
5470,1.0,0
5471,1.0,0
5472,2.0,0
5473,2.0,0
5474,2.0,0
5475,2.0,0
5476,2.0,0
5477,2.0,0
5478,2.0,0
5479,2.0,0
5480,2.0,0
5481,2.0,0
5482,2.0,0
5483,2.0,0
5484,2.0,0
5485,3.0,0
5486,4.0,0
5487,6.0,0
5488,7.0,0
5489,6.0,0
5490,6.0,0
5491,6.0,0
5492,6.0,0
5493,7.0,0
5494,7.0,0
5495,6.0,0
5496,6.0,0
5497,6.0,0
5498,7.0,0
5499,7.0,0
5500,6.0,0
5501,6.0,0
5502,6.0,0
5503,6.0,0
5504,6.0,0
5505,5.0,0
5506,5.0,0
5507,5.0,0
5508,3.0,0
5509,1.0,0
5510,0.0,0
5511,10.0,0
5512,29.0,0
5513,52.0,0
5514,64.0,0
5515,66.0,0
5516,55.0,0
5517,36.0,0
5518,16.0,0
5519,3.0,0
5520,-1.0,0
5521,-4.0,0
5522,-5.0,0
5523,-6.0,0
5524,-7.0,0
5525,-7.0,0
5526,-7.0,0
5527,-7.0,0
5528,-6.0,0
5529,-6.0,0
5530,-6.0,0
5531,-6.0,0
5532,-6.0,0
5533,-6.0,0
5534,-6.0,0
5535,-5.0,0
5536,-4.0,0
5537,-5.0,0
5538,-4.0,0
5539,-4.0,0
5540,-3.0,0
5541,-3.0,0
5542,-3.0,0
5543,-4.0,0
5544,-5.0,0
5545,-6.0,0
5546,-6.0,0
5547,-6.0,0
5548,-6.0,0
5549,-6.0,0
5550,-6.0,0
5551,-6.0,0
5552,-6.0,0
5553,-6.0,0
5554,-6.0,0
5555,-4.0,0
5556,-5.0,0
5557,-5.0,0
5558,-3.0,0
5559,-3.0,0
5560,-4.0,0
5561,-4.0,0
5562,-4.0,0
5563,-4.0,0
5564,-3.0,0
5565,-3.0,0
5566,-3.0,0
5567,-3.0,0
5568,-3.0,0
5569,-3.0,0
5570,-3.0,0
5571,-2.0,0
5572,-2.0,0
5573,-3.0,0
5574,-3.0,0
5575,-3.0,0
5576,-3.0,0
5577,-2.0,0
5578,-1.0,0
5579,0.0,0
5580,0.0,0
5581,0.0,0
5582,0.0,0
5583,0.0,0
5584,0.0,0
5585,0.0,0
5586,0.0,0
5587,0.0,0
5588,0.0,0
5589,0.0,0
5590,0.0,0
5591,0.0,0
5592,0.0,0
5593,0.0,0
5594,0.0,0
5595,0.0,0
5596,0.0,0
5597,0.0,0
5598,0.0,0
5599,0.0,0
5600,0.0,0
5601,-2.0,0
5602,-5.0,0
5603,2.0,0
5604,20.0,0
5605,42.0,0
5606,55.0,0
5607,59.0,0
5608,52.0,0
5609,35.0,0
5610,15.0,0
5611,2.0,0
5612,-3.0,0
5613,-6.0,0
5614,-8.0,0
5615,-9.0,0
5616,-10.0,0
5617,-10.0,0
5618,-11.0,0
5619,-10.0,0
5620,-9.0,0
5621,-8.0,0
5622,-8.0,0
5623,-8.0,0
5624,-7.0,0
5625,-7.0,0
5626,-7.0,0
5627,-7.0,0
5628,-6.0,0
5629,-6.0,0
5630,-6.0,0
5631,-6.0,0
5632,-6.0,0
5633,-5.0,0
5634,-5.0,0
5635,-6.0,0
5636,-6.0,0
5637,-6.0,0
5638,-6.0,0
5639,-6.0,0
5640,-6.0,0
5641,-6.0,0
5642,-7.0,0
5643,-7.0,0
5644,-6.0,0
5645,-6.0,0
5646,-6.0,0
5647,-6.0,0
5648,-6.0,0
5649,-6.0,0
5650,-6.0,0
5651,-5.0,0
5652,-5.0,0
5653,-5.0,0
5654,-5.0,0
5655,-5.0,0
5656,-5.0,0
5657,-5.0,0
5658,-4.0,0
5659,-4.0,0
5660,-4.0,0
5661,-4.0,0
5662,-3.0,0
5663,-3.0,0
5664,-4.0,0
5665,-6.0,0
5666,-6.0,0
5667,-6.0,0
5668,-5.0,0
5669,-2.0,0
5670,-1.0,0
5671,-1.0,0
5672,-1.0,0
5673,-1.0,0
5674,-1.0,0
5675,-1.0,0
5676,-1.0,0
5677,0.0,0
5678,0.0,0
5679,-1.0,0
5680,-1.0,0
5681,-1.0,0
5682,0.0,0
5683,0.0,0
5684,0.0,0
5685,0.0,0
5686,0.0,0
5687,0.0,0
5688,0.0,0
5689,0.0,0
5690,0.0,0
5691,-1.0,0
5692,-2.0,0
5693,-6.0,0
5694,-5.0,0
5695,6.0,0
5696,27.0,0
5697,48.0,0
5698,58.0,0
5699,56.0,0
5700,44.0,0
5701,25.0,0
5702,8.0,0
5703,-1.0,0
5704,-6.0,0
5705,-9.0,0
5706,-11.0,0
5707,-11.0,0
5708,-11.0,0
5709,-11.0,0
5710,-11.0,0
5711,-10.0,0
5712,-10.0,0
5713,-10.0,0
5714,-9.0,0
5715,-8.0,0
5716,-8.0,0
5717,-8.0,0
5718,-8.0,0
5719,-7.0,0
5720,-7.0,0
5721,-7.0,0
5722,-6.0,0
5723,-6.0,0
5724,-6.0,0
5725,-6.0,0
5726,-7.0,0
5727,-6.0,0
5728,-6.0,0
5729,-6.0,0
5730,-7.0,0
5731,-7.0,0
5732,-7.0,0
5733,-7.0,0
5734,-7.0,0
5735,-7.0,0
5736,-6.0,0
5737,-6.0,0
5738,-6.0,0
5739,-6.0,0
5740,-6.0,0
5741,-5.0,0
5742,-5.0,0
5743,-5.0,0
5744,-4.0,0
5745,-3.0,0
5746,-3.0,0
5747,-3.0,0
5748,-3.0,0
5749,-3.0,0
5750,-3.0,0
5751,-2.0,0
5752,-2.0,0
5753,-2.0,0
5754,-1.0,0
5755,-1.0,0
5756,-2.0,0
5757,-1.0,0
5758,-1.0,0
5759,-1.0,0
5760,-1.0,0
5761,0.0,0
5762,0.0,0
5763,1.0,0
5764,2.0,0
5765,2.0,0
5766,2.0,0
5767,2.0,0
5768,2.0,0
5769,3.0,0
5770,3.0,0
5771,3.0,0
5772,3.0,0
5773,3.0,0
5774,3.0,0
5775,4.0,0
5776,5.0,0
5777,4.0,0
5778,4.0,0
5779,6.0,0
5780,5.0,0
5781,5.0,0
5782,5.0,0
5783,5.0,0
5784,3.0,0
5785,0.0,0
5786,1.0,0
5787,11.0,0
5788,31.0,0
5789,52.0,0
5790,64.0,0
5791,65.0,0
5792,55.0,0
5793,38.0,0
5794,18.0,0
5795,5.0,0
5796,0.0,0
5797,0.0,0
5798,-2.0,0
5799,-2.0,0
5800,-2.0,0
5801,-2.0,0
5802,-2.0,0
5803,-2.0,0
5804,-2.0,0
5805,-1.0,0
5806,-1.0,0
5807,-1.0,0
5808,-1.0,0
5809,-1.0,0
5810,-1.0,0
5811,-1.0,0
5812,0.0,0
5813,0.0,0
5814,0.0,0
5815,0.0,0
5816,0.0,0
5817,0.0,0
5818,0.0,0
5819,0.0,0
5820,0.0,0
5821,0.0,0
5822,-1.0,0
5823,-1.0,0
5824,-1.0,0
5825,-1.0,0
5826,-1.0,0
5827,-2.0,0
5828,-2.0,0
5829,-1.0,0
5830,-1.0,0
5831,-2.0,0
5832,-1.0,0
5833,-1.0,0
5834,-1.0,0
5835,-1.0,0
5836,-1.0,0
5837,-1.0,0
5838,-1.0,0
5839,-1.0,0
5840,-1.0,0
5841,-1.0,0
5842,-1.0,0
5843,-1.0,0
5844,-1.0,0
5845,-2.0,0
5846,-2.0,0
5847,-2.0,0
5848,-3.0,0
5849,-3.0,0
5850,-2.0,0
5851,-1.0,0
5852,0.0,0
5853,0.0,0
5854,0.0,0
5855,0.0,0
5856,0.0,0
5857,0.0,0
5858,0.0,0
5859,0.0,0
5860,0.0,0
5861,0.0,0
5862,0.0,0
5863,0.0,0
5864,0.0,0
5865,0.0,0
5866,0.0,0
5867,0.0,0
5868,0.0,0
5869,0.0,0
5870,0.0,0
5871,0.0,0
5872,0.0,0
5873,0.0,0
5874,-2.0,0
5875,-6.0,0
5876,-5.0,0
5877,8.0,0
5878,30.0,0
5879,51.0,0
5880,59.0,0
5881,57.0,0
5882,44.0,0
5883,23.0,0
5884,5.0,0
5885,-3.0,0
5886,-7.0,0
5887,-11.0,0
5888,-12.0,0
5889,-12.0,0
5890,-13.0,0
5891,-12.0,0
5892,-12.0,0
5893,-12.0,0
5894,-12.0,0
5895,-11.0,0
5896,-11.0,0
5897,-11.0,0
5898,-10.0,0
5899,-9.0,0
5900,-8.0,0
5901,-8.0,0
5902,-8.0,0
5903,-7.0,0
5904,-7.0,0
5905,-7.0,0
5906,-7.0,0
5907,-7.0,0
5908,-7.0,0
5909,-7.0,0
5910,-7.0,0
5911,-7.0,0
5912,-8.0,0
5913,-8.0,0
5914,-8.0,0
5915,-8.0,0
5916,-8.0,0
5917,-7.0,0
5918,-7.0,0
5919,-7.0,0
5920,-7.0,0
5921,-6.0,0
5922,-6.0,0
5923,-6.0,0
5924,-6.0,0
5925,-6.0,0
5926,-6.0,0
5927,-6.0,0
5928,-6.0,0
5929,-6.0,0
5930,-6.0,0
5931,-6.0,0
5932,-4.0,0
5933,-4.0,0
5934,-4.0,0
5935,-3.0,0
5936,-3.0,0
5937,-3.0,0
5938,-5.0,0
5939,-5.0,0
5940,-5.0,0
5941,-6.0,0
5942,-3.0,0
5943,-2.0,0
5944,-2.0,0
5945,-2.0,0
5946,-1.0,0
5947,-1.0,0
5948,-1.0,0
5949,-1.0,0
5950,-1.0,0
5951,-1.0,0
5952,-1.0,0
5953,-1.0,0
5954,-1.0,0
5955,0.0,0
5956,0.0,0
5957,-1.0,0
5958,0.0,0
5959,0.0,0
5960,0.0,0
5961,0.0,0
5962,0.0,0
5963,0.0,0
5964,-1.0,0
5965,-1.0,0
5966,-4.0,0
5967,-7.0,0
5968,1.0,0
5969,21.0,0
5970,45.0,0
5971,58.0,0
5972,59.0,0
5973,48.0,0
5974,30.0,0
5975,10.0,0
5976,0.0,0
5977,-5.0,0
5978,-8.0,0
5979,-10.0,0
5980,-11.0,0
5981,-12.0,0
5982,-12.0,0
5983,-11.0,0
5984,-11.0,0
5985,-10.0,0
5986,-10.0,0
5987,-11.0,0
5988,-9.0,0
5989,-8.0,0
5990,-7.0,0
5991,-7.0,0
5992,-7.0,0
5993,-6.0,0
5994,-6.0,0
5995,-6.0,0
5996,-6.0,0
5997,-6.0,0
5998,-6.0,0
5999,-6.0,0
6000,-6.0,0
6001,-5.0,0
6002,-5.0,0
6003,-6.0,0
6004,-6.0,0
6005,-6.0,0
6006,-6.0,0
6007,-6.0,0
6008,-6.0,0
6009,-6.0,0
6010,-6.0,0
6011,-6.0,0
6012,-6.0,0
6013,-5.0,0
6014,-5.0,0
6015,-5.0,0
6016,-5.0,0
6017,-5.0,0
6018,-3.0,0
6019,-4.0,0
6020,-4.0,0
6021,-4.0,0
6022,-4.0,0
6023,-3.0,0
6024,-3.0,0
6025,-3.0,0
6026,-3.0,0
6027,-3.0,0
6028,-3.0,0
6029,-4.0,0
6030,-4.0,0
6031,-4.0,0
6032,-4.0,0
6033,-2.0,0
6034,-1.0,0
6035,0.0,0
6036,0.0,0
6037,0.0,0
6038,0.0,0
6039,0.0,0
6040,0.0,0
6041,0.0,0
6042,0.0,0
6043,0.0,0
6044,0.0,0
6045,0.0,0
6046,0.0,0
6047,0.0,0
6048,0.0,0
6049,0.0,0
6050,0.0,0
6051,0.0,0
6052,0.0,0
6053,0.0,0
6054,0.0,0
6055,0.0,0
6056,0.0,0
6057,-4.0,0
6058,-5.0,0
6059,4.0,0
6060,26.0,0
6061,48.0,0
6062,58.0,0
6063,59.0,0
6064,48.0,0
6065,28.0,0
6066,9.0,0
6067,0.0,0
6068,-5.0,0
6069,-8.0,0
6070,-9.0,0
6071,-10.0,0
6072,-11.0,0
6073,-11.0,0
6074,-11.0,0
6075,-9.0,0
6076,-9.0,0
6077,-9.0,0
6078,-9.0,0
6079,-8.0,0
6080,-8.0,0
6081,-7.0,0
6082,-7.0,0
6083,-7.0,0
6084,-6.0,0
6085,-6.0,0
6086,-6.0,0
6087,-5.0,0
6088,-5.0,0
6089,-6.0,0
6090,-6.0,0
6091,-6.0,0
6092,-6.0,0
6093,-6.0,0
6094,-6.0,0
6095,-6.0,0
6096,-6.0,0
6097,-6.0,0
6098,-6.0,0
6099,-6.0,0
6100,-6.0,0
6101,-6.0,0
6102,-6.0,0
6103,-6.0,0
6104,-4.0,0
6105,-4.0,0
6106,-3.0,0
6107,-3.0,0
6108,-3.0,0
6109,-3.0,0
6110,-2.0,0
6111,-2.0,0
6112,-2.0,0
6113,-2.0,0
6114,-1.0,0
6115,-1.0,0
6116,-1.0,0
6117,-1.0,0
6118,-1.0,0
6119,-1.0,0
6120,-2.0,0
6121,-2.0,0
6122,-2.0,0
6123,-1.0,0
6124,0.0,0
6125,0.0,0
6126,0.0,0
6127,1.0,0
6128,0.0,0
6129,0.0,0
6130,0.0,0
6131,0.0,0
6132,1.0,0
6133,1.0,0
6134,0.0,0
6135,0.0,0
6136,1.0,0
6137,1.0,0
6138,1.0,0
6139,1.0,0
6140,1.0,0
6141,1.0,0
6142,1.0,0
6143,1.0,0
6144,1.0,0
6145,1.0,0
6146,0.0,0
6147,0.0,0
6148,-5.0,0
6149,1.0,0
6150,17.0,0
6151,40.0,0
6152,55.0,0
6153,60.0,0
6154,53.0,0
6155,36.0,0
6156,16.0,0
6157,3.0,0
6158,-2.0,0
6159,-5.0,0
6160,-8.0,0
6161,-9.0,0
6162,-9.0,0
6163,-9.0,0
6164,-9.0,0
6165,-8.0,0
6166,-8.0,0
6167,-7.0,0
6168,-7.0,0
6169,-6.0,0
6170,-6.0,0
6171,-6.0,0
6172,-6.0,0
6173,-5.0,0
6174,-4.0,0
6175,-3.0,0
6176,-3.0,0
6177,-3.0,0
6178,-3.0,0
6179,-3.0,0
6180,-3.0,0
6181,-3.0,0
6182,-4.0,0
6183,-5.0,0
6184,-4.0,0
6185,-4.0,0
6186,-5.0,0
6187,-5.0,0
6188,-6.0,0
6189,-6.0,0
6190,-6.0,0
6191,-4.0,0
6192,-4.0,0
6193,-3.0,0
6194,-3.0,0
6195,-3.0,0
6196,-3.0,0
6197,-3.0,0
6198,-3.0,0
6199,-2.0,0
6200,-2.0,0
6201,-3.0,0
6202,-1.0,0
6203,-1.0,0
6204,-1.0,0
6205,-1.0,0
6206,0.0,0
6207,0.0,0
6208,-1.0,0
6209,-1.0,0
6210,-2.0,0
6211,-2.0,0
6212,-1.0,0
6213,0.0,0
6214,0.0,0
6215,0.0,0
6216,1.0,0
6217,1.0,0
6218,1.0,0
6219,1.0,0
6220,1.0,0
6221,1.0,0
6222,2.0,0
6223,2.0,0
6224,1.0,0
6225,1.0,0
6226,1.0,0
6227,1.0,0
6228,1.0,0
6229,1.0,0
6230,1.0,0
6231,1.0,0
6232,1.0,0
6233,0.0,0
6234,0.0,0
6235,0.0,0
6236,0.0,0
6237,0.0,0
6238,-4.0,0
6239,0.0,0
6240,15.0,0
6241,38.0,0
6242,55.0,0
6243,61.0,0
6244,56.0,0
6245,40.0,0
6246,21.0,0
6247,5.0,0
6248,-1.0,0
6249,-5.0,0
6250,-7.0,0
6251,-8.0,0
6252,-9.0,0
6253,-9.0,0
6254,-8.0,0
6255,-8.0,0
6256,-8.0,0
6257,-8.0,0
6258,-7.0,0
6259,-7.0,0
6260,-6.0,0
6261,-6.0,0
6262,-5.0,0
6263,-5.0,0
6264,-5.0,0
6265,-4.0,0
6266,-3.0,0
6267,-3.0,0
6268,-3.0,0
6269,-3.0,0
6270,-3.0,0
6271,-3.0,0
6272,-3.0,0
6273,-3.0,0
6274,-3.0,0
6275,-3.0,0
6276,-4.0,0
6277,-5.0,0
6278,-5.0,0
6279,-5.0,0
6280,-4.0,0
6281,-4.0,0
6282,-4.0,0
6283,-3.0,0
6284,-3.0,0
6285,-3.0,0
6286,-3.0,0
6287,-2.0,0
6288,-2.0,0
6289,-2.0,0
6290,-2.0,0
6291,-2.0,0
6292,-2.0,0
6293,-2.0,0
6294,-2.0,0
6295,-2.0,0
6296,-2.0,0
6297,-1.0,0
6298,-1.0,0
6299,-2.0,0
6300,-3.0,0
6301,-2.0,0
6302,-2.0,0
6303,-1.0,0
6304,0.0,0
6305,0.0,0
6306,1.0,0
6307,1.0,0
6308,1.0,0
6309,0.0,0
6310,0.0,0
6311,0.0,0
6312,0.0,0
6313,0.0,0
6314,0.0,0
6315,0.0,0
6316,0.0,0
6317,0.0,0
6318,0.0,0
6319,0.0,0
6320,0.0,0
6321,0.0,0
6322,0.0,0
6323,0.0,0
6324,0.0,0
6325,0.0,0
6326,0.0,0
6327,0.0,0
6328,-5.0,0
6329,-1.0,0
6330,13.0,0
6331,34.0,0
6332,52.0,0
6333,59.0,0
6334,56.0,0
6335,43.0,0
6336,24.0,0
6337,7.0,0
6338,0.0,0
6339,-4.0,0
6340,-6.0,0
6341,-8.0,0
6342,-9.0,0
6343,-8.0,0
6344,-8.0,0
6345,-8.0,0
6346,-8.0,0
6347,-8.0,0
6348,-7.0,0
6349,-6.0,0
6350,-6.0,0
6351,-6.0,0
6352,-6.0,0
6353,-5.0,0
6354,-3.0,0
6355,-3.0,0
6356,-3.0,0
6357,-3.0,0
6358,-3.0,0
6359,-3.0,0
6360,-3.0,0
6361,-3.0,0
6362,-3.0,0
6363,-3.0,0
6364,-4.0,0
6365,-4.0,0
6366,-4.0,0
6367,-4.0,0
6368,-4.0,0
6369,-3.0,0
6370,-3.0,0
6371,-4.0,0
6372,-4.0,0
6373,-3.0,0
6374,-3.0,0
6375,-3.0,0
6376,-3.0,0
6377,-3.0,0
6378,-3.0,0
6379,-3.0,0
6380,-3.0,0
6381,-3.0,0
6382,-3.0,0
6383,-3.0,0
6384,-3.0,0
6385,-3.0,0
6386,-2.0,0
6387,-2.0,0
6388,-2.0,0
6389,-2.0,0
6390,-2.0,0
6391,-3.0,0
6392,-2.0,0
6393,-1.0,0
6394,0.0,0
6395,0.0,0
6396,0.0,0
6397,0.0,0
6398,0.0,0
6399,0.0,0
6400,0.0,0
6401,0.0,0
6402,1.0,0
6403,1.0,0
6404,1.0,0
6405,2.0,0
6406,2.0,0
6407,3.0,0
6408,2.0,0
6409,2.0,0
6410,2.0,0
6411,2.0,0
6412,3.0,0
6413,3.0,0
6414,3.0,0
6415,3.0,0
6416,2.0,0
6417,0.0,0
6418,0.0,0
6419,9.0,0
6420,28.0,0
6421,50.0,0
6422,63.0,0
6423,66.0,0
6424,58.0,0
6425,40.0,0
6426,21.0,0
6427,7.0,0
6428,1.0,0
6429,0.0,0
6430,-1.0,0
6431,-2.0,0
6432,-2.0,0
6433,-1.0,0
6434,-1.0,0
6435,-1.0,0
6436,0.0,0
6437,0.0,0
6438,0.0,0
6439,0.0,0
6440,0.0,0
6441,0.0,0
6442,1.0,0
6443,1.0,0
6444,1.0,0
6445,2.0,0
6446,2.0,0
6447,2.0,0
6448,2.0,0
6449,3.0,0
6450,3.0,0
6451,3.0,0
6452,3.0,0
6453,3.0,0
6454,3.0,0
6455,2.0,0
6456,2.0,0
6457,3.0,0
6458,2.0,0
6459,2.0,0
6460,2.0,0
6461,3.0,0
6462,3.0,0
6463,2.0,0
6464,2.0,0
6465,2.0,0
6466,2.0,0
6467,2.0,0
6468,2.0,0
6469,2.0,0
6470,2.0,0
6471,2.0,0
6472,2.0,0
6473,2.0,0
6474,1.0,0
6475,1.0,0
6476,1.0,0
6477,0.0,0
6478,0.0,0
6479,0.0,0
6480,0.0,0
6481,0.0,0
6482,0.0,0
6483,1.0,0
6484,2.0,0
6485,2.0,0
6486,2.0,0
6487,2.0,0
6488,2.0,0
6489,2.0,0
6490,2.0,0
6491,2.0,0
6492,2.0,0
6493,2.0,0
6494,2.0,0
6495,2.0,0
6496,2.0,0
6497,2.0,0
6498,2.0,0
6499,2.0,0
6500,2.0,0
6501,2.0,0
6502,1.0,0
6503,1.0,0
6504,1.0,0
6505,0.0,0
6506,-1.0,0
6507,-2.0,0
6508,5.0,0
6509,23.0,0
6510,45.0,0
6511,60.0,0
6512,62.0,0
6513,55.0,0
6514,38.0,0
6515,18.0,0
6516,4.0,0
6517,-2.0,0
6518,-6.0,0
6519,-8.0,0
6520,-10.0,0
6521,-10.0,0
6522,-10.0,0
6523,-10.0,0
6524,-10.0,0
6525,-10.0,0
6526,-9.0,0
6527,-8.0,0
6528,-8.0,0
6529,-8.0,0
6530,-8.0,0
6531,-8.0,0
6532,-7.0,0
6533,-7.0,0
6534,-7.0,0
6535,-6.0,0
6536,-6.0,0
6537,-6.0,0
6538,-6.0,0
6539,-6.0,0
6540,-6.0,0
6541,-6.0,0
6542,-6.0,0
6543,-6.0,0
6544,-6.0,0
6545,-6.0,0
6546,-6.0,0
6547,-6.0,0
6548,-7.0,0
6549,-7.0,0
6550,-6.0,0
6551,-6.0,0
6552,-6.0,0
6553,-6.0,0
6554,-6.0,0
6555,-6.0,0
6556,-6.0,0
6557,-6.0,0
6558,-6.0,0
6559,-6.0,0
6560,-6.0,0
6561,-5.0,0
6562,-5.0,0
6563,-6.0,0
6564,-6.0,0
6565,-6.0,0
6566,-5.0,0
6567,-5.0,0
6568,-6.0,0
6569,-6.0,0
6570,-6.0,0
6571,-6.0,0
6572,-5.0,0
6573,-3.0,0
6574,-2.0,0
6575,-2.0,0
6576,-2.0,0
6577,-2.0,0
6578,-2.0,0
6579,-2.0,0
6580,-2.0,0
6581,-2.0,0
6582,-2.0,0
6583,-2.0,0
6584,-1.0,0
6585,-1.0,0
6586,-1.0,0
6587,-1.0,0
6588,-1.0,0
6589,-1.0,0
6590,-1.0,0
6591,-1.0,0
6592,-1.0,0
6593,-1.0,0
6594,-2.0,0
6595,-5.0,0
6596,-8.0,0
6597,-3.0,0
6598,13.0,0
6599,35.0,0
6600,53.0,0
6601,58.0,0
6602,54.0,0
6603,38.0,0
6604,18.0,0
6605,3.0,0
6606,-4.0,0
6607,-8.0,0
6608,-12.0,0
6609,-13.0,0
6610,-12.0,0
6611,-12.0,0
6612,-12.0,0
6613,-12.0,0
6614,-12.0,0
6615,-11.0,0
6616,-11.0,0
6617,-11.0,0
6618,-11.0,0
6619,-11.0,0
6620,-11.0,0
6621,-9.0,0
6622,-9.0,0
6623,-8.0,0
6624,-8.0,0
6625,-8.0,0
6626,-8.0,0
6627,-8.0,0
6628,-8.0,0
6629,-7.0,0
6630,-7.0,0
6631,-8.0,0
6632,-8.0,0
6633,-8.0,0
6634,-8.0,0
6635,-8.0,0
6636,-8.0,0
6637,-8.0,0
6638,-7.0,0
6639,-7.0,0
6640,-7.0,0
6641,-7.0,0
6642,-7.0,0
6643,-7.0,0
6644,-7.0,0
6645,-7.0,0
6646,-7.0,0
6647,-6.0,0
6648,-6.0,0
6649,-6.0,0
6650,-6.0,0
6651,-6.0,0
6652,-6.0,0
6653,-6.0,0
6654,-6.0,0
6655,-6.0,0
6656,-6.0,0
6657,-6.0,0
6658,-6.0,0
6659,-7.0,0
6660,-6.0,0
6661,-6.0,0
6662,-3.0,0
6663,-2.0,0
6664,-2.0,0
6665,-2.0,0
6666,-1.0,0
6667,-1.0,0
6668,-1.0,0
6669,-1.0,0
6670,-1.0,0
6671,-1.0,0
6672,-1.0,0
6673,-1.0,0
6674,0.0,0
6675,0.0,0
6676,0.0,0
6677,0.0,0
6678,0.0,0
6679,0.0,0
6680,0.0,0
6681,0.0,0
6682,0.0,0
6683,0.0,0
6684,0.0,0
6685,-3.0,0
6686,-6.0,0
6687,2.0,0
6688,20.0,0
6689,43.0,0
6690,57.0,0
6691,58.0,0
6692,50.0,0
6693,32.0,0
6694,13.0,0
6695,0.0,0
6696,-5.0,0
6697,-9.0,0
6698,-11.0,0
6699,-11.0,0
6700,-12.0,0
6701,-12.0,0
6702,-11.0,0
6703,-11.0,0
6704,-10.0,0
6705,-10.0,0
6706,-8.0,0
6707,-8.0,0
6708,-7.0,0
6709,-7.0,0
6710,-6.0,0
6711,-4.0,0
6712,-3.0,0
6713,-3.0,0
6714,-2.0,0
6715,-2.0,0
6716,-1.0,0
6717,-1.0,0
6718,-1.0,0
6719,-1.0,0
6720,-1.0,0
6721,-1.0,0
6722,-1.0,0
6723,0.0,0
6724,0.0,0
6725,-1.0,0
6726,0.0,0
6727,0.0,0
6728,0.0,0
6729,0.0,0
6730,0.0,0
6731,0.0,0
6732,0.0,0
6733,0.0,0
6734,1.0,0
6735,1.0,0
6736,1.0,0
6737,1.0,0
6738,1.0,0
6739,1.0,0
6740,1.0,0
6741,1.0,0
6742,1.0,0
6743,1.0,0
6744,1.0,0
6745,1.0,0
6746,1.0,0
6747,0.0,0
6748,0.0,0
6749,0.0,0
6750,0.0,0
6751,0.0,0
6752,1.0,0
6753,2.0,0
6754,2.0,0
6755,3.0,0
6756,3.0,0
6757,3.0,0
6758,2.0,0
6759,2.0,0
6760,2.0,0
6761,3.0,0
6762,3.0,0
6763,2.0,0
6764,2.0,0
6765,3.0,0
6766,3.0,0
6767,2.0,0
6768,2.0,0
6769,2.0,0
6770,2.0,0
6771,2.0,0
6772,2.0,0
6773,2.0,0
6774,1.0,0
6775,0.0,0
6776,-2.0,0
6777,5.0,0
6778,25.0,0
6779,47.0,0
6780,60.0,0
6781,64.0,0
6782,55.0,0
6783,38.0,0
6784,17.0,0
6785,2.0,0
6786,-1.0,0
6787,-4.0,0
6788,-7.0,0
6789,-8.0,0
6790,-8.0,0
6791,-8.0,0
6792,-8.0,0
6793,-8.0,0
6794,-8.0,0
6795,-7.0,0
6796,-7.0,0
6797,-7.0,0
6798,-7.0,0
6799,-7.0,0
6800,-6.0,0
6801,-6.0,0
6802,-6.0,0
6803,-5.0,0
6804,-4.0,0
6805,-4.0,0
6806,-4.0,0
6807,-4.0,0
6808,-4.0,0
6809,-4.0,0
6810,-5.0,0
6811,-5.0,0
6812,-5.0,0
6813,-6.0,0
6814,-6.0,0
6815,-6.0,0
6816,-6.0,0
6817,-6.0,0
6818,-6.0,0
6819,-6.0,0
6820,-6.0,0
6821,-6.0,0
6822,-5.0,0
6823,-5.0,0
6824,-5.0,0
6825,-4.0,0
6826,-4.0,0
6827,-4.0,0
6828,-3.0,0
6829,-3.0,0
6830,-3.0,0
6831,-3.0,0
6832,-3.0,0
6833,-3.0,0
6834,-3.0,0
6835,-3.0,0
6836,-4.0,0
6837,-5.0,0
6838,-6.0,0
6839,-6.0,0
6840,-6.0,0
6841,-4.0,0
6842,-2.0,0
6843,-2.0,0
6844,-1.0,0
6845,-1.0,0
6846,-1.0,0
6847,-1.0,0
6848,-1.0,0
6849,-1.0,0
6850,-1.0,0
6851,-1.0,0
6852,-1.0,0
6853,-1.0,0
6854,-1.0,0
6855,-1.0,0
6856,-1.0,0
6857,-1.0,0
6858,-1.0,0
6859,-1.0,0
6860,-1.0,0
6861,-1.0,0
6862,-1.0,0
6863,-1.0,0
6864,-2.0,0
6865,-7.0,0
6866,-7.0,0
6867,5.0,0
6868,25.0,0
6869,50.0,0
6870,58.0,0
6871,59.0,0
6872,44.0,0
6873,25.0,0
6874,7.0,0
6875,-1.0,0
6876,-7.0,0
6877,-10.0,0
6878,-11.0,0
6879,-12.0,0
6880,-12.0,0
6881,-12.0,0
6882,-12.0,0
6883,-11.0,0
6884,-11.0,0
6885,-11.0,0
6886,-9.0,0
6887,-9.0,0
6888,-9.0,0
6889,-8.0,0
6890,-7.0,0
6891,-7.0,0
6892,-7.0,0
6893,-7.0,0
6894,-7.0,0
6895,-6.0,0
6896,-6.0,0
6897,-7.0,0
6898,-7.0,0
6899,-7.0,0
6900,-7.0,0
6901,-7.0,0
6902,-7.0,0
6903,-7.0,0
6904,-7.0,0
6905,-8.0,0
6906,-8.0,0
6907,-8.0,0
6908,-8.0,0
6909,-7.0,0
6910,-7.0,0
6911,-7.0,0
6912,-7.0,0
6913,-7.0,0
6914,-7.0,0
6915,-6.0,0
6916,-5.0,0
6917,-5.0,0
6918,-5.0,0
6919,-6.0,0
6920,-4.0,0
6921,-4.0,0
6922,-3.0,0
6923,-3.0,0
6924,-3.0,0
6925,-3.0,0
6926,-3.0,0
6927,-3.0,0
6928,-2.0,0
6929,-2.0,0
6930,-2.0,0
6931,-1.0,0
6932,0.0,0
6933,0.0,0
6934,0.0,0
6935,1.0,0
6936,0.0,0
6937,0.0,0
6938,0.0,0
6939,1.0,0
6940,1.0,0
6941,0.0,0
6942,0.0,0
6943,0.0,0
6944,0.0,0
6945,0.0,0
6946,0.0,0
6947,0.0,0
6948,0.0,0
6949,0.0,0
6950,0.0,0
6951,0.0,0
6952,0.0,0
6953,0.0,0
6954,0.0,0
6955,-3.0,0
6956,-4.0,0
6957,6.0,0
6958,25.0,0
6959,48.0,0
6960,58.0,0
6961,61.0,0
6962,49.0,0
6963,30.0,0
6964,11.0,0
6965,1.0,0
6966,-3.0,0
6967,-7.0,0
6968,-8.0,0
6969,-9.0,0
6970,-9.0,0
6971,-9.0,0
6972,-9.0,0
6973,-8.0,0
6974,-8.0,0
6975,-8.0,0
6976,-7.0,0
6977,-7.0,0
6978,-7.0,0
6979,-6.0,0
6980,-6.0,0
6981,-6.0,0
6982,-6.0,0
6983,-5.0,0
6984,-4.0,0
6985,-3.0,0
6986,-3.0,0
6987,-4.0,0
6988,-4.0,0
6989,-5.0,0
6990,-5.0,0
6991,-5.0,0
6992,-6.0,0
6993,-6.0,0
6994,-6.0,0
6995,-6.0,0
6996,-6.0,0
6997,-6.0,0
6998,-6.0,0
6999,-6.0,0
7000,-6.0,0
7001,-4.0,0
7002,-3.0,0
7003,-3.0,0
7004,-3.0,0
7005,-3.0,0
7006,-3.0,0
7007,-3.0,0
7008,-2.0,0
7009,-2.0,0
7010,-2.0,0
7011,-1.0,0
7012,-1.0,0
7013,-1.0,0
7014,-1.0,0
7015,-1.0,0
7016,-2.0,0
7017,-3.0,0
7018,-2.0,0
7019,-2.0,0
7020,-1.0,0
7021,0.0,0
7022,0.0,0
7023,0.0,0
7024,0.0,0
7025,0.0,0
7026,0.0,0
7027,0.0,0
7028,0.0,0
7029,0.0,0
7030,0.0,0
7031,1.0,0
7032,1.0,0
7033,1.0,0
7034,1.0,0
7035,1.0,0
7036,0.0,0
7037,0.0,0
7038,1.0,0
7039,1.0,0
7040,1.0,0
7041,1.0,0
7042,0.0,0
7043,0.0,0
7044,0.0,0
7045,-5.0,0
7046,2.0,0
7047,21.0,0
7048,44.0,0
7049,57.0,0
7050,61.0,0
7051,52.0,0
7052,33.0,0
7053,14.0,0
7054,2.0,0
7055,-3.0,0
7056,-6.0,0
7057,-9.0,0
7058,-10.0,0
7059,-11.0,0
7060,-10.0,0
7061,-10.0,0
7062,-9.0,0
7063,-9.0,0
7064,-8.0,0
7065,-8.0,0
7066,-7.0,0
7067,-7.0,0
7068,-7.0,0
7069,-7.0,0
7070,-6.0,0
7071,-6.0,0
7072,-6.0,0
7073,-6.0,0
7074,-6.0,0
7075,-6.0,0
7076,-6.0,0
7077,-6.0,0
7078,-6.0,0
7079,-6.0,0
7080,-6.0,0
7081,-6.0,0
7082,-5.0,0
7083,-5.0,0
7084,-5.0,0
7085,-6.0,0
7086,-4.0,0
7087,-3.0,0
7088,-3.0,0
7089,-3.0,0
7090,-2.0,0
7091,-1.0,0
7092,0.0,0
7093,0.0,0
7094,0.0,0
7095,0.0,0
7096,0.0,0
7097,0.0,0
7098,0.0,0
7099,0.0,0
7100,0.0,0
7101,0.0,0
7102,0.0,0
7103,1.0,0
7104,1.0,0
7105,0.0,0
7106,0.0,0
7107,0.0,0
7108,0.0,0
7109,1.0,0
7110,1.0,0
7111,2.0,0
7112,3.0,0
7113,6.0,0
7114,6.0,0
7115,6.0,0
7116,6.0,0
7117,6.0,0
7118,7.0,0
7119,7.0,0
7120,6.0,0
7121,6.0,0
7122,6.0,0
7123,7.0,0
7124,7.0,0
7125,7.0,0
7126,7.0,0
7127,7.0,0
7128,7.0,0
7129,7.0,0
7130,7.0,0
7131,7.0,0
7132,7.0,0
7133,7.0,0
7134,3.0,0
7135,2.0,0
7136,15.0,0
7137,34.0,0
7138,55.0,0
7139,66.0,0
7140,68.0,0
7141,59.0,0
7142,40.0,0
7143,20.0,0
7144,7.0,0
7145,1.0,0
7146,0.0,0
7147,-1.0,0
7148,-3.0,0
7149,-3.0,0
7150,-3.0,0
7151,-2.0,0
7152,-2.0,0
7153,-3.0,0
7154,-3.0,0
7155,-3.0,0
7156,-2.0,0
7157,-1.0,0
7158,-1.0,0
7159,-1.0,0
7160,-1.0,0
7161,-1.0,0
7162,0.0,0
7163,0.0,0
7164,0.0,0
7165,0.0,0
7166,0.0,0
7167,-1.0,0
7168,-1.0,0
7169,0.0,0
7170,0.0,0
7171,-1.0,0
7172,-1.0,0
7173,-1.0,0
7174,-1.0,0
7175,-2.0,0
7176,-2.0,0
7177,-2.0,0
7178,-1.0,0
7179,-1.0,0
7180,-2.0,0
7181,-2.0,0
7182,-2.0,0
7183,-2.0,0
7184,-2.0,0
7185,-2.0,0
7186,-2.0,0
7187,-2.0,0
7188,-2.0,0
7189,-2.0,0
7190,-2.0,0
7191,-2.0,0
7192,-2.0,0
7193,-2.0,0
7194,-2.0,0
7195,-3.0,0
7196,-3.0,0
7197,-3.0,0
7198,-3.0,0
7199,-2.0,0
7200,-1.0,0
7201,0.0,0
7202,0.0,0
7203,0.0,0
7204,0.0,0
7205,-1.0,0
7206,0.0,0
7207,0.0,0
7208,0.0,0
7209,0.0,0
7210,0.0,0
7211,0.0,0
7212,0.0,0
7213,0.0,0
7214,0.0,0
7215,0.0,0
7216,0.0,0
7217,0.0,0
7218,0.0,0
7219,-1.0,0
7220,-1.0,0
7221,-1.0,0
7222,-2.0,0
7223,-7.0,0
7224,-4.0,0
7225,8.0,0
7226,30.0,0
7227,49.0,0
7228,60.0,0
7229,57.0,0
7230,44.0,0
7231,25.0,0
7232,7.0,0
7233,-2.0,0
7234,-7.0,0
7235,-10.0,0
7236,-12.0,0
7237,-13.0,0
7238,-12.0,0
7239,-12.0,0
7240,-12.0,0
7241,-12.0,0
7242,-12.0,0
7243,-12.0,0
7244,-11.0,0
7245,-11.0,0
7246,-11.0,0
7247,-11.0,0
7248,-10.0,0
7249,-9.0,0
7250,-8.0,0
7251,-8.0,0
7252,-8.0,0
7253,-8.0,0
7254,-8.0,0
7255,-8.0,0
7256,-8.0,0
7257,-8.0,0
7258,-8.0,0
7259,-8.0,0
7260,-8.0,0
7261,-9.0,0
7262,-9.0,0
7263,-8.0,0
7264,-8.0,0
7265,-8.0,0
7266,-8.0,0
7267,-8.0,0
7268,-8.0,0
7269,-7.0,0
7270,-7.0,0
7271,-7.0,0
7272,-7.0,0
7273,-7.0,0
7274,-7.0,0
7275,-7.0,0
7276,-7.0,0
7277,-7.0,0
7278,-7.0,0
7279,-7.0,0
7280,-7.0,0
7281,-6.0,0
7282,-6.0,0
7283,-6.0,0
7284,-6.0,0
7285,-7.0,0
7286,-7.0,0
7287,-7.0,0
7288,-6.0,0
7289,-5.0,0
7290,-3.0,0
7291,-2.0,0
7292,-2.0,0
7293,-2.0,0
7294,-2.0,0
7295,-2.0,0
7296,-2.0,0
7297,-1.0,0
7298,-1.0,0
7299,-2.0,0
7300,-2.0,0
7301,-2.0,0
7302,-1.0,0
7303,-1.0,0
7304,-1.0,0
7305,-1.0,0
7306,-1.0,0
7307,0.0,0
7308,0.0,0
7309,-1.0,0
7310,-1.0,0
7311,-1.0,0
7312,-3.0,0
7313,-7.0,0
7314,-3.0,0
7315,12.0,0
7316,34.0,0
7317,52.0,0
7318,58.0,0
7319,52.0,0
7320,37.0,0
7321,17.0,0
7322,2.0,0
7323,-4.0,0
7324,-9.0,0
7325,-11.0,0
7326,-12.0,0
7327,-12.0,0
7328,-12.0,0
7329,-11.0,0
7330,-11.0,0
7331,-11.0,0
7332,-11.0,0
7333,-10.0,0
7334,-9.0,0
7335,-9.0,0
7336,-8.0,0
7337,-7.0,0
7338,-7.0,0
7339,-7.0,0
7340,-6.0,0
7341,-5.0,0
7342,-5.0,0
7343,-5.0,0
7344,-5.0,0
7345,-5.0,0
7346,-5.0,0
7347,-5.0,0
7348,-6.0,0
7349,-6.0,0
7350,-6.0,0
7351,-6.0,0
7352,-6.0,0
7353,-6.0,0
7354,-6.0,0
7355,-4.0,0
7356,-5.0,0
7357,-5.0,0
7358,-4.0,0
7359,-3.0,0
7360,-2.0,0
7361,-2.0,0
7362,-2.0,0
7363,-1.0,0
7364,-1.0,0
7365,-1.0,0
7366,-1.0,0
7367,-1.0,0
7368,-1.0,0
7369,-1.0,0
7370,-1.0,0
7371,-1.0,0
7372,-1.0,0
7373,-1.0,0
7374,-2.0,0
7375,-2.0,0
7376,-2.0,0
7377,-1.0,0
7378,0.0,0
7379,0.0,0
7380,0.0,0
7381,1.0,0
7382,1.0,0
7383,1.0,0
7384,0.0,0
7385,0.0,0
7386,1.0,0
7387,1.0,0
7388,1.0,0
7389,1.0,0
7390,0.0,0
7391,0.0,0
7392,1.0,0
7393,2.0,0
7394,2.0,0
7395,2.0,0
7396,1.0,0
7397,1.0,0
7398,2.0,0
7399,2.0,0
7400,1.0,0
7401,0.0,0
7402,-2.0,0
7403,-2.0,0
7404,8.0,0
7405,28.0,0
7406,48.0,0
7407,59.0,0
7408,60.0,0
7409,48.0,0
7410,30.0,0
7411,11.0,0
7412,0.0,0
7413,-4.0,0
7414,-7.0,0
7415,-9.0,0
7416,-10.0,0
7417,-11.0,0
7418,-10.0,0
7419,-9.0,0
7420,-9.0,0
7421,-9.0,0
7422,-8.0,0
7423,-8.0,0
7424,-8.0,0
7425,-7.0,0
7426,-7.0,0
7427,-7.0,0
7428,-7.0,0
7429,-6.0,0
7430,-6.0,0
7431,-6.0,0
7432,-6.0,0
7433,-6.0,0
7434,-5.0,0
7435,-5.0,0
7436,-6.0,0
7437,-6.0,0
7438,-6.0,0
7439,-6.0,0
7440,-6.0,0
7441,-6.0,0
7442,-6.0,0
7443,-6.0,0
7444,-6.0,0
7445,-6.0,0
7446,-6.0,0
7447,-6.0,0
7448,-6.0,0
7449,-5.0,0
7450,-3.0,0
7451,-3.0,0
7452,-3.0,0
7453,-3.0,0
7454,-2.0,0
7455,-2.0,0
7456,-2.0,0
7457,-2.0,0
7458,-2.0,0
7459,-2.0,0
7460,-2.0,0
7461,-2.0,0
7462,-2.0,0
7463,-3.0,0
7464,-3.0,0
7465,-3.0,0
7466,-3.0,0
7467,-3.0,0
7468,-2.0,0
7469,0.0,0
7470,0.0,0
7471,0.0,0
7472,0.0,0
7473,0.0,0
7474,0.0,0
7475,0.0,0
7476,0.0,0
7477,1.0,0
7478,1.0,0
7479,1.0,0
7480,2.0,0
7481,2.0,0
7482,3.0,0
7483,3.0,0
7484,3.0,0
7485,4.0,0
7486,4.0,0
7487,4.0,0
7488,5.0,0
7489,5.0,0
7490,5.0,0
7491,3.0,0
7492,0.0,0
7493,4.0,0
7494,17.0,0
7495,38.0,0
7496,57.0,0
7497,64.0,0
7498,62.0,0
7499,48.0,0
7500,29.0,0
7501,11.0,0
7502,1.0,0
7503,0.0,0
7504,-3.0,0
7505,-3.0,0
7506,-4.0,0
7507,-3.0,0
7508,-3.0,0
7509,-3.0,0
7510,-3.0,0
7511,-3.0,0
7512,-3.0,0
7513,-2.0,0
7514,-2.0,0
7515,-1.0,0
7516,0.0,0
7517,0.0,0
7518,0.0,0
7519,0.0,0
7520,0.0,0
7521,0.0,0
7522,0.0,0
7523,1.0,0
7524,1.0,0
7525,1.0,0
7526,1.0,0
7527,1.0,0
7528,1.0,0
7529,1.0,0
7530,1.0,0
7531,1.0,0
7532,1.0,0
7533,1.0,0
7534,1.0,0
7535,1.0,0
7536,1.0,0
7537,1.0,0
7538,1.0,0
7539,1.0,0
7540,2.0,0
7541,1.0,0
7542,1.0,0
7543,1.0,0
7544,1.0,0
7545,1.0,0
7546,2.0,0
7547,2.0,0
7548,2.0,0
7549,2.0,0
7550,1.0,0
7551,1.0,0
7552,1.0,0
7553,1.0,0
7554,1.0,0
7555,1.0,0
7556,2.0,0
7557,4.0,0
7558,5.0,0
7559,6.0,0
7560,6.0,0
7561,6.0,0
7562,5.0,0
7563,5.0,0
7564,5.0,0
7565,5.0,0
7566,5.0,0
7567,5.0,0
7568,4.0,0
7569,5.0,0
7570,5.0,0
7571,4.0,0
7572,4.0,0
7573,4.0,0
7574,4.0,0
7575,3.0,0
7576,3.0,0
7577,3.0,0
7578,2.0,0
7579,1.0,0
7580,0.0,0
7581,1.0,0
7582,15.0,0
7583,37.0,0
7584,58.0,0
7585,64.0,0
7586,63.0,0
7587,48.0,0
7588,28.0,0
7589,9.0,0
7590,0.0,0
7591,-3.0,0
7592,-7.0,0
7593,-8.0,0
7594,-8.0,0
7595,-8.0,0
7596,-9.0,0
7597,-8.0,0
7598,-8.0,0
7599,-8.0,0
7600,-8.0,0
7601,-8.0,0
7602,-8.0,0
7603,-8.0,0
7604,-8.0,0
7605,-7.0,0
7606,-7.0,0
7607,-6.0,0
7608,-6.0,0
7609,-6.0,0
7610,-6.0,0
7611,-6.0,0
7612,-6.0,0
7613,-6.0,0
7614,-6.0,0
7615,-6.0,0
7616,-6.0,0
7617,-6.0,0
7618,-6.0,0
7619,-7.0,0
7620,-7.0,0
7621,-6.0,0
7622,-6.0,0
7623,-6.0,0
7624,-5.0,0
7625,-5.0,0
7626,-5.0,0
7627,-5.0,0
7628,-5.0,0
7629,-4.0,0
7630,-4.0,0
7631,-3.0,0
7632,-3.0,0
7633,-4.0,0
7634,-4.0,0
7635,-3.0,0
7636,-3.0,0
7637,-3.0,0
7638,-3.0,0
7639,-3.0,0
7640,-3.0,0
7641,-5.0,0
7642,-5.0,0
7643,-5.0,0
7644,-4.0,0
7645,-4.0,0
7646,-2.0,0
7647,-1.0,0
7648,0.0,0
7649,0.0,0
7650,0.0,0
7651,-1.0,0
7652,-1.0,0
7653,-1.0,0
7654,-1.0,0
7655,-1.0,0
7656,-1.0,0
7657,0.0,0
7658,0.0,0
7659,0.0,0
7660,0.0,0
7661,0.0,0
7662,0.0,0
7663,-1.0,0
7664,-1.0,0
7665,-1.0,0
7666,0.0,0
7667,0.0,0
7668,-2.0,0
7669,-5.0,0
7670,-6.0,0
7671,5.0,0
7672,24.0,0
7673,47.0,0
7674,56.0,0
7675,59.0,0
7676,47.0,0
7677,27.0,0
7678,8.0,0
7679,-1.0,0
7680,-7.0,0
7681,-9.0,0
7682,-11.0,0
7683,-12.0,0
7684,-13.0,0
7685,-12.0,0
7686,-12.0,0
7687,-12.0,0
7688,-12.0,0
7689,-12.0,0
7690,-11.0,0
7691,-11.0,0
7692,-11.0,0
7693,-8.0,0
7694,-10.0,0
7695,-9.0,0
7696,-8.0,0
7697,-8.0,0
7698,-8.0,0
7699,-7.0,0
7700,-7.0,0
7701,-7.0,0
7702,-7.0,0
7703,-7.0,0
7704,-8.0,0
7705,-8.0,0
7706,-8.0,0
7707,-8.0,0
7708,-9.0,0
7709,-8.0,0
7710,-8.0,0
7711,-8.0,0
7712,-8.0,0
7713,-8.0,0
7714,-8.0,0
7715,-8.0,0
7716,-8.0,0
7717,-8.0,0
7718,-7.0,0
7719,-7.0,0
7720,-7.0,0
7721,-7.0,0
7722,-7.0,0
7723,-7.0,0
7724,-7.0,0
7725,-7.0,0
7726,-7.0,0
7727,-7.0,0
7728,-6.0,0
7729,-6.0,0
7730,-6.0,0
7731,-7.0,0
7732,-7.0,0
7733,-7.0,0
7734,-6.0,0
7735,-3.0,0
7736,-2.0,0
7737,-2.0,0
7738,-2.0,0
7739,-2.0,0
7740,-2.0,0
7741,-2.0,0
7742,-1.0,0
7743,-1.0,0
7744,-1.0,0
7745,-1.0,0
7746,-1.0,0
7747,-1.0,0
7748,-1.0,0
7749,-1.0,0
7750,0.0,0
7751,0.0,0
7752,-1.0,0
7753,0.0,0
7754,0.0,0
7755,0.0,0
7756,0.0,0
7757,-1.0,0
7758,-5.0,0
7759,-8.0,0
7760,1.0,0
7761,18.0,0
7762,43.0,0
7763,55.0,0
7764,58.0,0
7765,48.0,0
7766,31.0,0
7767,10.0,0
7768,0.0,0
7769,-5.0,0
7770,-8.0,0
7771,-10.0,0
7772,-11.0,0
7773,-11.0,0
7774,-9.0,0
7775,-8.0,0
7776,-8.0,0
7777,-8.0,0
7778,-7.0,0
7779,-7.0,0
7780,-6.0,0
7781,-6.0,0
7782,-4.0,0
7783,-3.0,0
7784,-2.0,0
7785,-2.0,0
7786,-1.0,0
7787,0.0,0
7788,0.0,0
7789,0.0,0
7790,0.0,0
7791,0.0,0
7792,0.0,0
7793,0.0,0
7794,0.0,0
7795,0.0,0
7796,0.0,0
7797,0.0,0
7798,0.0,0
7799,0.0,0
7800,0.0,0
7801,0.0,0
7802,0.0,0
7803,0.0,0
7804,1.0,0
7805,1.0,0
7806,1.0,0
7807,1.0,0
7808,1.0,0
7809,1.0,0
7810,1.0,0
7811,1.0,0
7812,1.0,0
7813,1.0,0
7814,1.0,0
7815,0.0,0
7816,0.0,0
7817,1.0,0
7818,0.0,0
7819,0.0,0
7820,0.0,0
7821,0.0,0
7822,0.0,0
7823,0.0,0
7824,1.0,0
7825,2.0,0
7826,2.0,0
7827,2.0,0
7828,2.0,0
7829,2.0,0
7830,2.0,0
7831,2.0,0
7832,2.0,0
7833,2.0,0
7834,2.0,0
7835,2.0,0
7836,2.0,0
7837,2.0,0
7838,2.0,0
7839,2.0,0
7840,2.0,0
7841,2.0,0
7842,2.0,0
7843,1.0,0
7844,1.0,0
7845,1.0,0
7846,0.0,0
7847,-1.0,0
7848,-3.0,0
7849,8.0,0
7850,29.0,0
7851,52.0,0
7852,61.0,0
7853,63.0,0
7854,52.0,0
7855,32.0,0
7856,12.0,0
7857,1.0,0
7858,-3.0,0
7859,-6.0,0
7860,-7.0,0
7861,-8.0,0
7862,-9.0,0
7863,-9.0,0
7864,-9.0,0
7865,-9.0,0
7866,-8.0,0
7867,-8.0,0
7868,-8.0,0
7869,-8.0,0
7870,-7.0,0
7871,-7.0,0
7872,-7.0,0
7873,-7.0,0
7874,-6.0,0
7875,-6.0,0
7876,-6.0,0
7877,-5.0,0
7878,-5.0,0
7879,-6.0,0
7880,-6.0,0
7881,-6.0,0
7882,-6.0,0
7883,-6.0,0
7884,-7.0,0
7885,-7.0,0
7886,-7.0,0
7887,-7.0,0
7888,-7.0,0
7889,-7.0,0
7890,-7.0,0
7891,-7.0,0
7892,-6.0,0
7893,-6.0,0
7894,-6.0,0
7895,-6.0,0
7896,-6.0,0
7897,-6.0,0
7898,-6.0,0
7899,-6.0,0
7900,-6.0,0
7901,-6.0,0
7902,-5.0,0
7903,-5.0,0
7904,-6.0,0
7905,-6.0,0
7906,-6.0,0
7907,-6.0,0
7908,-6.0,0
7909,-7.0,0
7910,-7.0,0
7911,-6.0,0
7912,-5.0,0
7913,-3.0,0
7914,-2.0,0
7915,-2.0,0
7916,-2.0,0
7917,-2.0,0
7918,-2.0,0
7919,-2.0,0
7920,-2.0,0
7921,-2.0,0
7922,-2.0,0
7923,-2.0,0
7924,-2.0,0
7925,-1.0,0
7926,-1.0,0
7927,-1.0,0
7928,-1.0,0
7929,-1.0,0
7930,-1.0,0
7931,-1.0,0
7932,-1.0,0
7933,-1.0,0
7934,-2.0,0
7935,-2.0,0
7936,-8.0,0
7937,-8.0,0
7938,6.0,0
7939,28.0,0
7940,50.0,0
7941,59.0,0
7942,57.0,0
7943,43.0,0
7944,24.0,0
7945,6.0,0
7946,-2.0,0
7947,-6.0,0
7948,-10.0,0
7949,-11.0,0
7950,-12.0,0
7951,-12.0,0
7952,-12.0,0
7953,-11.0,0
7954,-11.0,0
7955,-10.0,0
7956,-10.0,0
7957,-11.0,0
7958,-10.0,0
7959,-8.0,0
7960,-7.0,0
7961,-7.0,0
7962,-7.0,0
7963,-7.0,0
7964,-7.0,0
7965,-7.0,0
7966,-7.0,0
7967,-7.0,0
7968,-7.0,0
7969,-7.0,0
7970,-7.0,0
7971,-7.0,0
7972,-7.0,0
7973,-7.0,0
7974,-7.0,0
7975,-6.0,0
7976,-6.0,0
7977,-6.0,0
7978,-5.0,0
7979,-4.0,0
7980,-4.0,0
7981,-3.0,0
7982,-3.0,0
7983,-2.0,0
7984,-1.0,0
7985,-1.0,0
7986,-1.0,0
7987,0.0,0
7988,0.0,0
7989,0.0,0
7990,0.0,0
7991,0.0,0
7992,0.0,0
7993,1.0,0
7994,1.0,0
7995,1.0,0
7996,2.0,0
7997,1.0,0
7998,1.0,0
7999,1.0,0
8000,1.0,0
8001,2.0,0
8002,3.0,0
8003,5.0,0
8004,6.0,0
8005,7.0,0
8006,7.0,0
8007,7.0,0
8008,7.0,0
8009,7.0,0
8010,7.0,0
8011,7.0,0
8012,7.0,0
8013,7.0,0
8014,8.0,0
8015,8.0,0
8016,8.0,0
8017,8.0,0
8018,8.0,0
8019,8.0,0
8020,8.0,0
8021,8.0,0
8022,8.0,0
8023,8.0,0
8024,7.0,0
8025,3.0,0
8026,1.0,0
8027,9.0,0
8028,27.0,0
8029,49.0,0
8030,62.0,0
8031,67.0,0
8032,60.0,0
8033,43.0,0
8034,22.0,0
8035,7.0,0
8036,1.0,0
8037,-1.0,0
8038,-2.0,0
8039,-4.0,0
8040,-5.0,0
8041,-5.0,0
8042,-4.0,0
8043,-4.0,0
8044,-5.0,0
8045,-4.0,0
8046,-3.0,0
8047,-3.0,0
8048,-3.0,0
8049,-2.0,0
8050,-2.0,0
8051,-2.0,0
8052,-2.0,0
8053,-1.0,0
8054,-1.0,0
8055,-1.0,0
8056,-1.0,0
8057,-1.0,0
8058,-1.0,0
8059,-1.0,0
8060,-1.0,0
8061,-1.0,0
8062,-2.0,0
8063,-2.0,0
8064,-2.0,0
8065,-2.0,0
8066,-2.0,0
8067,-3.0,0
8068,-3.0,0
8069,-3.0,0
8070,-2.0,0
8071,-2.0,0
8072,-3.0,0
8073,-3.0,0
8074,-3.0,0
8075,-3.0,0
8076,-3.0,0
8077,-3.0,0
8078,-3.0,0
8079,-3.0,0
8080,-3.0,0
8081,-3.0,0
8082,-3.0,0
8083,-3.0,0
8084,-5.0,0
8085,-6.0,0
8086,-6.0,0
8087,-6.0,0
8088,-6.0,0
8089,-4.0,0
8090,-2.0,0
8091,-2.0,0
8092,-1.0,0
8093,-1.0,0
8094,-2.0,0
8095,-2.0,0
8096,-1.0,0
8097,-1.0,0
8098,-1.0,0
8099,-1.0,0
8100,-1.0,0
8101,-1.0,0
8102,-1.0,0
8103,-1.0,0
8104,-1.0,0
8105,-1.0,0
8106,-1.0,0
8107,-1.0,0
8108,-1.0,0
8109,-2.0,0
8110,-1.0,0
8111,-1.0,0
8112,-2.0,0
8113,-8.0,0
8114,-7.0,0
8115,5.0,0
8116,26.0,0
8117,47.0,0
8118,57.0,0
8119,57.0,0
8120,46.0,0
8121,26.0,0
8122,7.0,0
8123,-3.0,0
8124,-8.0,0
8125,-11.0,0
8126,-14.0,0
8127,-16.0,0
8128,-15.0,0
8129,-14.0,0
8130,-13.0,0
8131,-13.0,0
8132,-13.0,0
8133,-13.0,0
8134,-13.0,0
8135,-12.0,0
8136,-12.0,0
8137,-12.0,0
8138,-11.0,0
8139,-11.0,0
8140,-10.0,0
8141,-10.0,0
8142,-10.0,0
8143,-8.0,0
8144,-8.0,0
8145,-8.0,0
8146,-8.0,0
8147,-8.0,0
8148,-9.0,0
8149,-9.0,0
8150,-9.0,0
8151,-9.0,0
8152,-9.0,0
8153,-8.0,0
8154,-8.0,0
8155,-8.0,0
8156,-8.0,0
8157,-8.0,0
8158,-7.0,0
8159,-7.0,0
8160,-7.0,0
8161,-7.0,0
8162,-7.0,0
8163,-7.0,0
8164,-6.0,0
8165,-6.0,0
8166,-7.0,0
8167,-6.0,0
8168,-6.0,0
8169,-6.0,0
8170,-6.0,0
8171,-5.0,0
8172,-5.0,0
8173,-6.0,0
8174,-6.0,0
8175,-7.0,0
8176,-6.0,0
8177,-5.0,0
8178,-4.0,0
8179,-2.0,0
8180,-2.0,0
8181,-1.0,0
8182,-1.0,0
8183,-1.0,0
8184,0.0,0
8185,0.0,0
8186,0.0,0
8187,0.0,0
8188,0.0,0
8189,0.0,0
8190,0.0,0
8191,0.0,0
8192,0.0,0
8193,0.0,0
8194,0.0,0
8195,0.0,0
8196,0.0,0
8197,0.0,0
8198,0.0,0
8199,0.0,0
8200,0.0,0
8201,0.0,0
8202,-3.0,0
8203,-1.0,0
8204,10.0,0
8205,31.0,0
8206,51.0,0
8207,60.0,0
8208,58.0,0
8209,47.0,0
8210,28.0,0
8211,10.0,0
8212,1.0,0
8213,-2.0,0
8214,-4.0,0
8215,-6.0,0
8216,-6.0,0
8217,-6.0,0
8218,-5.0,0
8219,-4.0,0
8220,-3.0,0
8221,-3.0,0
8222,-3.0,0
8223,-2.0,0
8224,-2.0,0
8225,-2.0,0
8226,-1.0,0
8227,-1.0,0
8228,0.0,0
8229,0.0,0
8230,0.0,0
8231,0.0,0
8232,0.0,0
8233,0.0,0
8234,0.0,0
8235,0.0,0
8236,0.0,0
8237,0.0,0
8238,0.0,0
8239,0.0,0
8240,0.0,0
8241,0.0,0
8242,0.0,0
8243,0.0,0
8244,0.0,0
8245,0.0,0
8246,-1.0,0
8247,0.0,0
8248,0.0,0
8249,-1.0,0
8250,-1.0,0
8251,0.0,0
8252,0.0,0
8253,-1.0,0
8254,-1.0,0
8255,-1.0,0
8256,-1.0,0
8257,0.0,0
8258,0.0,0
8259,0.0,0
8260,-1.0,0
8261,-1.0,0
8262,-2.0,0
8263,-2.0,0
8264,-2.0,0
8265,-1.0,0
8266,0.0,0
8267,0.0,0
8268,0.0,0
8269,0.0,0
8270,1.0,0
8271,0.0,0
8272,0.0,0
8273,0.0,0
8274,0.0,0
8275,0.0,0
8276,0.0,0
8277,0.0,0
8278,0.0,0
8279,0.0,0
8280,0.0,0
8281,0.0,0
8282,0.0,0
8283,1.0,0
8284,0.0,0
8285,0.0,0
8286,0.0,0
8287,0.0,0
8288,0.0,0
8289,0.0,0
8290,-5.0,0
8291,-2.0,0
8292,11.0,0
8293,33.0,0
8294,52.0,0
8295,60.0,0
8296,57.0,0
8297,43.0,0
8298,24.0,0
8299,7.0,0
8300,-2.0,0
8301,-6.0,0
8302,-10.0,0
8303,-11.0,0
8304,-11.0,0
8305,-11.0,0
8306,-12.0,0
8307,-12.0,0
8308,-11.0,0
8309,-11.0,0
8310,-12.0,0
8311,-11.0,0
8312,-11.0,0
8313,-10.0,0
8314,-9.0,0
8315,-9.0,0
8316,-8.0,0
8317,-7.0,0
8318,-7.0,0
8319,-7.0,0
8320,-7.0,0
8321,-7.0,0
8322,-7.0,0
8323,-7.0,0
8324,-7.0,0
8325,-7.0,0
8326,-7.0,0
8327,-8.0,0
8328,-7.0,0
8329,-7.0,0
8330,-8.0,0
8331,-7.0,0
8332,-7.0,0
8333,-7.0,0
8334,-7.0,0
8335,-7.0,0
8336,-7.0,0
8337,-6.0,0
8338,-6.0,0
8339,-5.0,0
8340,-5.0,0
8341,-6.0,0
8342,-6.0,0
8343,-6.0,0
8344,-6.0,0
8345,-6.0,0
8346,-6.0,0
8347,-6.0,0
8348,-6.0,0
8349,-6.0,0
8350,-6.0,0
8351,-6.0,0
8352,-6.0,0
8353,-6.0,0
8354,-5.0,0
8355,-3.0,0
8356,-1.0,0
8357,0.0,0
8358,0.0,0
8359,0.0,0
8360,-1.0,0
8361,0.0,0
8362,0.0,0
8363,0.0,0
8364,0.0,0
8365,0.0,0
8366,0.0,0
8367,0.0,0
8368,0.0,0
8369,0.0,0
8370,0.0,0
8371,0.0,0
8372,0.0,0
8373,0.0,0
8374,0.0,0
8375,0.0,0
8376,0.0,0
8377,0.0,0
8378,-3.0,0
8379,-3.0,0
8380,4.0,0
8381,23.0,0
8382,45.0,0
8383,58.0,0
8384,59.0,0
8385,48.0,0
8386,29.0,0
8387,11.0,0
8388,0.0,0
8389,-4.0,0
8390,-8.0,0
8391,-10.0,0
8392,-11.0,0
8393,-11.0,0
8394,-11.0,0
8395,-10.0,0
8396,-9.0,0
8397,-9.0,0
8398,-8.0,0
8399,-7.0,0
8400,-7.0,0
8401,-7.0,0
8402,-6.0,0
8403,-5.0,0
8404,-4.0,0
8405,-3.0,0
8406,-3.0,0
8407,-2.0,0
8408,-1.0,0
8409,-1.0,0
8410,-1.0,0
8411,-1.0,0
8412,-1.0,0
8413,0.0,0
8414,0.0,0
8415,0.0,0
8416,0.0,0
8417,0.0,0
8418,0.0,0
8419,0.0,0
8420,0.0,0
8421,0.0,0
8422,0.0,0
8423,0.0,0
8424,0.0,0
8425,0.0,0
8426,0.0,0
8427,1.0,0
8428,1.0,0
8429,1.0,0
8430,1.0,0
8431,1.0,0
8432,1.0,0
8433,1.0,0
8434,1.0,0
8435,1.0,0
8436,2.0,0
8437,2.0,0
8438,1.0,0
8439,1.0,0
8440,0.0,0
8441,0.0,0
8442,1.0,0
8443,1.0,0
8444,3.0,0
8445,4.0,0
8446,6.0,0
8447,6.0,0
8448,6.0,0
8449,6.0,0
8450,6.0,0
8451,6.0,0
8452,7.0,0
8453,7.0,0
8454,7.0,0
8455,7.0,0
8456,7.0,0
8457,7.0,0
8458,7.0,0
8459,7.0,0
8460,7.0,0
8461,7.0,0
8462,7.0,0
8463,7.0,0
8464,7.0,0
8465,7.0,0
8466,5.0,0
8467,2.0,0
8468,2.0,0
8469,10.0,0
8470,28.0,0
8471,49.0,0
8472,64.0,0
8473,67.0,0
8474,61.0,0
8475,44.0,0
8476,24.0,0
8477,8.0,0
8478,1.0,0
8479,0.0,0
8480,-2.0,0
8481,-3.0,0
8482,-4.0,0
8483,-3.0,0
8484,-3.0,0
8485,-3.0,0
8486,-3.0,0
8487,-3.0,0
8488,-3.0,0
8489,-3.0,0
8490,-3.0,0
8491,-3.0,0
8492,-2.0,0
8493,-2.0,0
8494,-2.0,0
8495,-1.0,0
8496,-1.0,0
8497,-1.0,0
8498,-1.0,0
8499,-1.0,0
8500,-1.0,0
8501,-1.0,0
8502,-1.0,0
8503,-2.0,0
8504,-2.0,0
8505,-2.0,0
8506,-2.0,0
8507,-3.0,0
8508,-2.0,0
8509,-2.0,0
8510,-3.0,0
8511,-3.0,0
8512,-3.0,0
8513,-3.0,0
8514,-3.0,0
8515,-3.0,0
8516,-3.0,0
8517,-2.0,0
8518,-2.0,0
8519,-3.0,0
8520,-3.0,0
8521,-3.0,0
8522,-3.0,0
8523,-3.0,0
8524,-4.0,0
8525,-4.0,0
8526,-4.0,0
8527,-6.0,0
8528,-6.0,0
8529,-6.0,0
8530,-5.0,0
8531,-4.0,0
8532,-2.0,0
8533,-1.0,0
8534,-1.0,0
8535,-1.0,0
8536,-1.0,0
8537,-1.0,0
8538,-1.0,0
8539,-1.0,0
8540,-1.0,0
8541,-1.0,0
8542,-1.0,0
8543,-2.0,0
8544,-1.0,0
8545,-1.0,0
8546,-1.0,0
8547,-1.0,0
8548,-2.0,0
8549,-2.0,0
8550,-2.0,0
8551,-2.0,0
8552,-2.0,0
8553,-1.0,0
8554,-2.0,0
8555,-6.0,0
8556,-8.0,0
8557,1.0,0
8558,20.0,0
8559,42.0,0
8560,55.0,0
8561,57.0,0
8562,48.0,0
8563,31.0,0
8564,11.0,0
8565,-1.0,0
8566,-7.0,0
8567,-11.0,0
8568,-13.0,0
8569,-13.0,0
8570,-13.0,0
8571,-13.0,0
8572,-13.0,0
8573,-13.0,0
8574,-13.0,0
8575,-13.0,0
8576,-13.0,0
8577,-12.0,0
8578,-12.0,0
8579,-12.0,0
8580,-12.0,0
8581,-11.0,0
8582,-10.0,0
8583,-10.0,0
8584,-11.0,0
8585,-10.0,0
8586,-10.0,0
8587,-9.0,0
8588,-9.0,0
8589,-9.0,0
8590,-9.0,0
8591,-9.0,0
8592,-9.0,0
8593,-10.0,0
8594,-10.0,0
8595,-10.0,0
8596,-10.0,0
8597,-10.0,0
8598,-10.0,0
8599,-10.0,0
8600,-10.0,0
8601,-9.0,0
8602,-8.0,0
8603,-8.0,0
8604,-8.0,0
8605,-8.0,0
8606,-8.0,0
8607,-8.0,0
8608,-8.0,0
8609,-8.0,0
8610,-7.0,0
8611,-7.0,0
8612,-7.0,0
8613,-7.0,0
8614,-7.0,0
8615,-7.0,0
8616,-7.0,0
8617,-7.0,0
8618,-7.0,0
8619,-7.0,0
8620,-6.0,0
8621,-5.0,0
8622,-4.0,0
8623,-2.0,0
8624,-2.0,0
8625,-2.0,0
8626,-2.0,0
8627,-2.0,0
8628,-2.0,0
8629,-1.0,0
8630,-1.0,0
8631,-1.0,0
8632,-1.0,0
8633,-1.0,0
8634,0.0,0
8635,0.0,0
8636,0.0,0
8637,0.0,0
8638,0.0,0
8639,0.0,0
8640,0.0,0
8641,0.0,0
8642,0.0,0
8643,0.0,0
8644,-2.0,0
8645,-5.0,0
8646,1.0,0
8647,18.0,0
8648,39.0,0
8649,55.0,0
8650,58.0,0
8651,52.0,0
8652,36.0,0
8653,17.0,0
8654,2.0,0
8655,-2.0,0
8656,-6.0,0
8657,-8.0,0
8658,-8.0,0
8659,-8.0,0
8660,-8.0,0
8661,-7.0,0
8662,-7.0,0
8663,-7.0,0
8664,-6.0,0
8665,-6.0,0
8666,-6.0,0
8667,-4.0,0
8668,-3.0,0
8669,-2.0,0
8670,-2.0,0
8671,-1.0,0
8672,-1.0,0
8673,0.0,0
8674,0.0,0
8675,0.0,0
8676,0.0,0
8677,0.0,0
8678,0.0,0
8679,0.0,0
8680,0.0,0
8681,0.0,0
8682,0.0,0
8683,0.0,0
8684,0.0,0
8685,0.0,0
8686,0.0,0
8687,0.0,0
8688,0.0,0
8689,0.0,0
8690,0.0,0
8691,0.0,0
8692,0.0,0
8693,1.0,0
8694,1.0,0
8695,1.0,0
8696,1.0,0
8697,1.0,0
8698,1.0,0
8699,1.0,0
8700,1.0,0
8701,2.0,0
8702,2.0,0
8703,1.0,0
8704,1.0,0
8705,1.0,0
8706,1.0,0
8707,1.0,0
8708,1.0,0
8709,2.0,0
8710,3.0,0
8711,5.0,0
8712,6.0,0
8713,6.0,0
8714,6.0,0
8715,5.0,0
8716,5.0,0
8717,5.0,0
8718,6.0,0
8719,6.0,0
8720,6.0,0
8721,6.0,0
8722,6.0,0
8723,6.0,0
8724,6.0,0
8725,6.0,0
8726,6.0,0
8727,6.0,0
8728,5.0,0
8729,5.0,0
8730,5.0,0
8731,4.0,0
8732,2.0,0
8733,0.0,0
8734,0.0,0
8735,10.0,0
8736,31.0,0
8737,52.0,0
8738,63.0,0
8739,64.0,0
8740,54.0,0
8741,35.0,0
8742,14.0,0
8743,1.0,0
8744,-2.0,0
8745,-5.0,0
8746,-7.0,0
8747,-7.0,0
8748,-8.0,0
8749,-7.0,0
8750,-7.0,0
8751,-7.0,0
8752,-7.0,0
8753,-7.0,0
8754,-7.0,0
8755,-7.0,0
8756,-7.0,0
8757,-7.0,0
8758,-6.0,0
8759,-6.0,0
8760,-6.0,0
8761,-5.0,0
8762,-5.0,0
8763,-5.0,0
8764,-4.0,0
8765,-4.0,0
8766,-4.0,0
8767,-4.0,0
8768,-5.0,0
8769,-6.0,0
8770,-6.0,0
8771,-7.0,0
8772,-7.0,0
8773,-7.0,0
8774,-7.0,0
8775,-7.0,0
8776,-7.0,0
8777,-6.0,0
8778,-6.0,0
8779,-6.0,0
8780,-6.0,0
8781,-7.0,0
8782,-7.0,0
8783,-7.0,0
8784,-7.0,0
8785,-7.0,0
8786,-7.0,0
8787,-7.0,0
8788,-7.0,0
8789,-7.0,0
8790,-7.0,0
8791,-7.0,0
8792,-5.0,0
8793,-6.0,0
8794,-7.0,0
8795,-7.0,0
8796,-7.0,0
8797,-7.0,0
8798,-6.0,0
8799,-4.0,0
8800,-3.0,0
8801,-3.0,0
8802,-2.0,0
8803,-2.0,0
8804,-3.0,0
8805,-2.0,0
8806,-2.0,0
8807,-2.0,0
8808,-2.0,0
8809,-2.0,0
8810,-2.0,0
8811,-2.0,0
8812,-2.0,0
8813,-2.0,0
8814,-2.0,0
8815,-2.0,0
8816,-2.0,0
8817,-2.0,0
8818,-3.0,0
8819,-3.0,0
8820,-3.0,0
8821,-4.0,0
8822,-8.0,0
8823,-9.0,0
8824,3.0,0
8825,24.0,0
8826,46.0,0
8827,56.0,0
8828,57.0,0
8829,44.0,0
8830,25.0,0
8831,5.0,0
8832,-4.0,0
8833,-8.0,0
8834,-12.0,0
8835,-15.0,0
8836,-14.0,0
8837,-14.0,0
8838,-14.0,0
8839,-14.0,0
8840,-14.0,0
8841,-13.0,0
8842,-13.0,0
8843,-13.0,0
8844,-12.0,0
8845,-12.0,0
8846,-11.0,0
8847,-11.0,0
8848,-11.0,0
8849,-10.0,0
8850,-9.0,0
8851,-9.0,0
8852,-9.0,0
8853,-8.0,0
8854,-8.0,0
8855,-8.0,0
8856,-8.0,0
8857,-8.0,0
8858,-8.0,0
8859,-8.0,0
8860,-9.0,0
8861,-8.0,0
8862,-8.0,0
8863,-8.0,0
8864,-8.0,0
8865,-8.0,0
8866,-8.0,0
8867,-8.0,0
8868,-7.0,0
8869,-6.0,0
8870,-5.0,0
8871,-4.0,0
8872,-4.0,0
8873,-4.0,0
8874,-4.0,0
8875,-4.0,0
8876,-4.0,0
8877,-4.0,0
8878,-3.0,0
8879,-3.0,0
8880,-3.0,0
8881,-3.0,0
8882,-3.0,0
8883,-3.0,0
8884,-5.0,0
8885,-5.0,0
8886,-5.0,0
8887,-4.0,0
8888,-2.0,0
8889,-1.0,0
8890,0.0,0
8891,0.0,0
8892,0.0,0
8893,0.0,0
8894,0.0,0
8895,0.0,0
8896,0.0,0
8897,0.0,0
8898,1.0,0
8899,1.0,0
8900,2.0,0
8901,2.0,0
8902,2.0,0
8903,3.0,0
8904,3.0,0
8905,5.0,0
8906,5.0,0
8907,5.0,0
8908,5.0,0
8909,6.0,0
8910,5.0,0
8911,4.0,0
8912,0.0,0
8913,1.0,0
8914,14.0,0
8915,34.0,0
8916,55.0,0
8917,64.0,0
8918,64.0,0
8919,52.0,0
8920,33.0,0
8921,13.0,0
8922,3.0,0
8923,0.0,0
8924,-2.0,0
8925,-3.0,0
8926,-4.0,0
8927,-3.0,0
8928,-3.0,0
8929,-3.0,0
8930,-3.0,0
8931,-2.0,0
8932,-2.0,0
8933,-1.0,0
8934,-1.0,0
8935,0.0,0
8936,0.0,0
8937,0.0,0
8938,0.0,0
8939,0.0,0
8940,0.0,0
8941,0.0,0
8942,1.0,0
8943,2.0,0
8944,2.0,0
8945,2.0,0
8946,2.0,0
8947,1.0,0
8948,1.0,0
8949,1.0,0
8950,1.0,0
8951,1.0,0
8952,1.0,0
8953,1.0,0
8954,1.0,0
8955,1.0,0
8956,1.0,0
8957,1.0,0
8958,1.0,0
8959,1.0,0
8960,1.0,0
8961,1.0,0
8962,1.0,0
8963,1.0,0
8964,1.0,0
8965,0.0,0
8966,0.0,0
8967,1.0,0
8968,0.0,0
8969,0.0,0
8970,0.0,0
8971,0.0,0
8972,0.0,0
8973,0.0,0
8974,0.0,0
8975,0.0,0
8976,0.0,0
8977,0.0,0
8978,1.0,0
8979,2.0,0
8980,2.0,0
8981,2.0,0
8982,1.0,0
8983,1.0,0
8984,2.0,0
8985,2.0,0
8986,2.0,0
8987,2.0,0
8988,2.0,0
8989,1.0,0
8990,1.0,0
8991,1.0,0
8992,1.0,0
8993,1.0,0
8994,1.0,0
8995,1.0,0
8996,1.0,0
8997,0.0,0
8998,0.0,0
8999,0.0,0
9000,-4.0,0
9001,-3.0,0
9002,6.0,0
9003,29.0,0
9004,53.0,0
9005,61.0,0
9006,62.0,0
9007,48.0,0
9008,28.0,0
9009,10.0,0
9010,0.0,0
9011,-6.0,0
9012,-9.0,0
9013,-11.0,0
9014,-12.0,0
9015,-12.0,0
9016,-12.0,0
9017,-11.0,0
9018,-11.0,0
9019,-12.0,0
9020,-12.0,0
9021,-12.0,0
9022,-11.0,0
9023,-11.0,0
9024,-11.0,0
9025,-11.0,0
9026,-10.0,0
9027,-9.0,0
9028,-8.0,0
9029,-8.0,0
9030,-8.0,0
9031,-8.0,0
9032,-8.0,0
9033,-8.0,0
9034,-8.0,0
9035,-8.0,0
9036,-8.0,0
9037,-8.0,0
9038,-8.0,0
9039,-8.0,0
9040,-8.0,0
9041,-8.0,0
9042,-8.0,0
9043,-7.0,0
9044,-7.0,0
9045,-7.0,0
9046,-7.0,0
9047,-7.0,0
9048,-7.0,0
9049,-7.0,0
9050,-7.0,0
9051,-7.0,0
9052,-7.0,0
9053,-7.0,0
9054,-7.0,0
9055,-7.0,0
9056,-7.0,0
9057,-7.0,0
9058,-7.0,0
9059,-7.0,0
9060,-7.0,0
9061,-8.0,0
9062,-8.0,0
9063,-8.0,0
9064,-8.0,0
9065,-6.0,0
9066,-5.0,0
9067,-4.0,0
9068,-3.0,0
9069,-3.0,0
9070,-3.0,0
9071,-3.0,0
9072,-3.0,0
9073,-3.0,0
9074,-3.0,0
9075,-3.0,0
9076,-2.0,0
9077,-2.0,0
9078,-2.0,0
9079,-2.0,0
9080,-2.0,0
9081,-2.0,0
9082,-2.0,0
9083,-2.0,0
9084,-2.0,0
9085,-2.0,0
9086,-2.0,0
9087,-2.0,0
9088,-3.0,0
9089,-7.0,0
9090,-8.0,0
9091,3.0,0
9092,23.0,0
9093,47.0,0
9094,57.0,0
9095,58.0,0
9096,45.0,0
9097,27.0,0
9098,9.0,0
9099,0.0,0
9100,-7.0,0
9101,-11.0,0
9102,-12.0,0
9103,-13.0,0
9104,-12.0,0
9105,-12.0,0
9106,-12.0,0
9107,-12.0,0
9108,-12.0,0
9109,-11.0,0
9110,-11.0,0
9111,-10.0,0
9112,-9.0,0
9113,-9.0,0
9114,-8.0,0
9115,-7.0,0
9116,-7.0,0
9117,-7.0,0
9118,-7.0,0
9119,-7.0,0
9120,-7.0,0
9121,-7.0,0
9122,-7.0,0
9123,-7.0,0
9124,-8.0,0
9125,-8.0,0
9126,-7.0,0
9127,-6.0,0
9128,-7.0,0
9129,-7.0,0
9130,-6.0,0
9131,-6.0,0
9132,-6.0,0
9133,-5.0,0
9134,-4.0,0
9135,-4.0,0
9136,-4.0,0
9137,-3.0,0
9138,-3.0,0
9139,-2.0,0
9140,-2.0,0
9141,-2.0,0
9142,-1.0,0
9143,-1.0,0
9144,-1.0,0
9145,-1.0,0
9146,0.0,0
9147,0.0,0
9148,0.0,0
9149,0.0,0
9150,0.0,0
9151,0.0,0
9152,0.0,0
9153,0.0,0
9154,0.0,0
9155,1.0,0
9156,2.0,0
9157,4.0,0
9158,5.0,0
9159,5.0,0
9160,6.0,0
9161,6.0,0
9162,6.0,0
9163,7.0,0
9164,7.0,0
9165,7.0,0
9166,7.0,0
9167,7.0,0
9168,6.0,0
9169,5.0,0
9170,5.0,0
9171,6.0,0
9172,6.0,0
9173,5.0,0
9174,5.0,0
9175,5.0,0
9176,6.0,0
9177,6.0,0
9178,5.0,0
9179,0.0,0
9180,1.0,0
9181,15.0,0
9182,34.0,0
9183,54.0,0
9184,64.0,0
9185,65.0,0
9186,54.0,0
9187,35.0,0
9188,15.0,0
9189,3.0,0
9190,0.0,0
9191,-3.0,0
9192,-4.0,0
9193,-5.0,0
9194,-6.0,0
9195,-6.0,0
9196,-6.0,0
9197,-6.0,0
9198,-6.0,0
9199,-5.0,0
9200,-4.0,0
9201,-4.0,0
9202,-3.0,0
9203,-3.0,0
9204,-2.0,0
9205,-2.0,0
9206,-1.0,0
9207,-1.0,0
9208,-1.0,0
9209,-1.0,0
9210,-1.0,0
9211,-1.0,0
9212,-1.0,0
9213,-2.0,0
9214,-2.0,0
9215,-2.0,0
9216,-2.0,0
9217,-2.0,0
9218,-2.0,0
9219,-3.0,0
9220,-2.0,0
9221,-2.0,0
9222,-3.0,0
9223,-3.0,0
9224,-3.0,0
9225,-3.0,0
9226,-3.0,0
9227,-3.0,0
9228,-3.0,0
9229,-3.0,0
9230,-4.0,0
9231,-6.0,0
9232,-10.0,0
9233,-15.0,0
9234,-18.0,0
9235,-20.0,0
9236,-23.0,0
9237,-29.0,0
9238,-36.0,0
9239,-43.0,0
9240,-47.0,0
9241,-48.0,0
9242,-52.0,0
9243,-53.0,0
9244,-48.0,0
9245,-32.0,0
9246,-8.0,0
9247,9.0,0
9248,18.0,0
9249,21.0,0
9250,21.0,0
9251,22.0,0
9252,22.0,0
9253,22.0,0
9254,22.0,0
9255,22.0,0
9256,22.0,0
9257,22.0,0
9258,21.0,0
9259,20.0,0
9260,18.0,0
9261,18.0,0
9262,18.0,0
9263,17.0,0
9264,16.0,0
9265,16.0,0
9266,15.0,0
9267,13.0,0
9268,13.0,0
9269,12.0,0
9270,12.0,0
9271,11.0,0
9272,9.0,0
9273,8.0,0
9274,7.0,0
9275,6.0,0
9276,4.0,0
9277,2.0,0
9278,1.0,0
9279,0.0,0
9280,0.0,0
9281,0.0,0
9282,-1.0,0
9283,-3.0,0
9284,-3.0,0
9285,-4.0,0
9286,-4.0,0
9287,-4.0,0
9288,-6.0,0
9289,-6.0,0
9290,-6.0,0
9291,-6.0,0
9292,-6.0,0
9293,-6.0,0
9294,-6.0,0
9295,-6.0,0
9296,-6.0,0
9297,-5.0,0
9298,-4.0,0
9299,-4.0,0
9300,-4.0,0
9301,-4.0,0
9302,-4.0,0
9303,-4.0,0
9304,-3.0,0
9305,-3.0,0
9306,-3.0,0
9307,-3.0,0
9308,-3.0,0
9309,-3.0,0
9310,-3.0,0
9311,-3.0,0
9312,-3.0,0
9313,-3.0,0
9314,-3.0,0
9315,-3.0,0
9316,-3.0,0
9317,-3.0,0
9318,-3.0,0
9319,-3.0,0
9320,-3.0,0
9321,-3.0,0
9322,-3.0,0
9323,-3.0,0
9324,-2.0,0
9325,-2.0,0
9326,-3.0,0
9327,-3.0,0
9328,-2.0,0
9329,-2.0,0
9330,-2.0,0
9331,-3.0,0
9332,-3.0,0
9333,-2.0,0
9334,-1.0,0
9335,0.0,0
9336,0.0,0
9337,0.0,0
9338,0.0,0
9339,0.0,0
9340,0.0,0
9341,0.0,0
9342,0.0,0
9343,0.0,0
9344,0.0,0
9345,0.0,0
9346,0.0,0
9347,0.0,0
9348,0.0,0
9349,0.0,0
9350,0.0,0
9351,0.0,0
9352,0.0,0
9353,0.0,0
9354,0.0,0
9355,0.0,0
9356,-3.0,0
9357,-6.0,0
9358,-1.0,0
9359,14.0,0
9360,37.0,0
9361,52.0,0
9362,58.0,0
9363,52.0,0
9364,37.0,0
9365,18.0,0
9366,4.0,0
9367,-2.0,0
9368,-5.0,0
9369,-7.0,0
9370,-8.0,0
9371,-8.0,0
9372,-8.0,0
9373,-8.0,0
9374,-7.0,0
9375,-7.0,0
9376,-6.0,0
9377,-5.0,0
9378,-4.0,0
9379,-3.0,0
9380,-2.0,0
9381,-1.0,0
9382,-1.0,0
9383,0.0,0
9384,0.0,0
9385,0.0,0
9386,0.0,0
9387,0.0,0
9388,0.0,0
9389,0.0,0
9390,0.0,0
9391,0.0,0
9392,0.0,0
9393,0.0,0
9394,-1.0,0
9395,-1.0,0
9396,-1.0,0
9397,-2.0,0
9398,-2.0,0
9399,-2.0,0
9400,-2.0,0
9401,-1.0,0
9402,-1.0,0
9403,-1.0,0
9404,0.0,0
9405,0.0,0
9406,0.0,0
9407,0.0,0
9408,0.0,0
9409,0.0,0
9410,0.0,0
9411,0.0,0
9412,1.0,0
9413,1.0,0
9414,1.0,0
9415,1.0,0
9416,1.0,0
9417,0.0,0
9418,0.0,0
9419,0.0,0
9420,0.0,0
9421,1.0,0
9422,1.0,0
9423,3.0,0
9424,5.0,0
9425,5.0,0
9426,6.0,0
9427,6.0,0
9428,6.0,0
9429,6.0,0
9430,6.0,0
9431,6.0,0
9432,7.0,0
9433,7.0,0
9434,7.0,0
9435,7.0,0
9436,7.0,0
9437,7.0,0
9438,7.0,0
9439,7.0,0
9440,7.0,0
9441,7.0,0
9442,6.0,0
9443,6.0,0
9444,6.0,0
9445,3.0,0
9446,0.0,0
9447,3.0,0
9448,16.0,0
9449,36.0,0
9450,55.0,0
9451,65.0,0
9452,64.0,0
9453,52.0,0
9454,32.0,0
9455,13.0,0
9456,2.0,0
9457,-1.0,0
9458,-3.0,0
9459,-5.0,0
9460,-6.0,0
9461,-6.0,0
9462,-6.0,0
9463,-6.0,0
9464,-6.0,0
9465,-6.0,0
9466,-6.0,0
9467,-6.0,0
9468,-6.0,0
9469,-5.0,0
9470,-4.0,0
9471,-3.0,0
9472,-3.0,0
9473,-3.0,0
9474,-3.0,0
9475,-3.0,0
9476,-3.0,0
9477,-3.0,0
9478,-3.0,0
9479,-3.0,0
9480,-3.0,0
9481,-3.0,0
9482,-4.0,0
9483,-5.0,0
9484,-6.0,0
9485,-5.0,0
9486,-5.0,0
9487,-6.0,0
9488,-6.0,0
9489,-5.0,0
9490,-5.0,0
9491,-4.0,0
9492,-4.0,0
9493,-5.0,0
9494,-6.0,0
9495,-6.0,0
9496,-6.0,0
9497,-6.0,0
9498,-6.0,0
9499,-6.0,0
9500,-6.0,0
9501,-6.0,0
9502,-5.0,0
9503,-5.0,0
9504,-6.0,0
9505,-6.0,0
9506,-6.0,0
9507,-6.0,0
9508,-7.0,0
9509,-7.0,0
9510,-6.0,0
9511,-5.0,0
9512,-3.0,0
9513,-2.0,0
9514,-2.0,0
9515,-2.0,0
9516,-2.0,0
9517,-2.0,0
9518,-3.0,0
9519,-2.0,0
9520,-2.0,0
9521,-2.0,0
9522,-2.0,0
9523,-2.0,0
9524,-2.0,0
9525,-2.0,0
9526,-2.0,0
9527,-2.0,0
9528,-2.0,0
9529,-2.0,0
9530,-2.0,0
9531,-3.0,0
9532,-3.0,0
9533,-2.0,0
9534,-3.0,0
9535,-8.0,0
9536,-9.0,0
9537,0.0,0
9538,19.0,0
9539,41.0,0
9540,55.0,0
9541,56.0,0
9542,47.0,0
9543,28.0,0
9544,10.0,0
9545,-2.0,0
9546,-8.0,0
9547,-11.0,0
9548,-13.0,0
9549,-14.0,0
9550,-15.0,0
9551,-13.0,0
9552,-13.0,0
9553,-13.0,0
9554,-13.0,0
9555,-12.0,0
9556,-12.0,0
9557,-12.0,0
9558,-12.0,0
9559,-12.0,0
9560,-11.0,0
9561,-11.0,0
9562,-11.0,0
9563,-9.0,0
9564,-9.0,0
9565,-8.0,0
9566,-8.0,0
9567,-8.0,0
9568,-8.0,0
9569,-8.0,0
9570,-8.0,0
9571,-8.0,0
9572,-8.0,0
9573,-8.0,0
9574,-9.0,0
9575,-9.0,0
9576,-8.0,0
9577,-8.0,0
9578,-8.0,0
9579,-8.0,0
9580,-8.0,0
9581,-8.0,0
9582,-7.0,0
9583,-7.0,0
9584,-7.0,0
9585,-6.0,0
9586,-5.0,0
9587,-4.0,0
9588,-4.0,0
9589,-3.0,0
9590,-3.0,0
9591,-3.0,0
9592,-3.0,0
9593,-3.0,0
9594,-3.0,0
9595,-3.0,0
9596,-3.0,0
9597,-3.0,0
9598,-5.0,0
9599,-5.0,0
9600,-4.0,0
9601,-3.0,0
9602,-1.0,0
9603,-1.0,0
9604,0.0,0
9605,0.0,0
9606,0.0,0
9607,0.0,0
9608,0.0,0
9609,0.0,0
9610,1.0,0
9611,1.0,0
9612,1.0,0
9613,1.0,0
9614,2.0,0
9615,3.0,0
9616,3.0,0
9617,3.0,0
9618,3.0,0
9619,3.0,0
9620,3.0,0
9621,3.0,0
9622,4.0,0
9623,4.0,0
9624,2.0,0
9625,0.0,0
9626,1.0,0
9627,11.0,0
9628,31.0,0
9629,50.0,0
9630,61.0,0
9631,62.0,0
9632,54.0,0
9633,36.0,0
9634,16.0,0
9635,4.0,0
9636,0.0,0
9637,-1.0,0
9638,-3.0,0
9639,-3.0,0
9640,-3.0,0
9641,-3.0,0
9642,-3.0,0
9643,-3.0,0
9644,-2.0,0
9645,-2.0,0
9646,-2.0,0
9647,-1.0,0
9648,-1.0,0
9649,0.0,0
9650,0.0,0
9651,0.0,0
9652,0.0,0
9653,1.0,0
9654,1.0,0
9655,1.0,0
9656,1.0,0
9657,2.0,0
9658,2.0,0
9659,2.0,0
9660,2.0,0
9661,1.0,0
9662,1.0,0
9663,1.0,0
9664,1.0,0
9665,0.0,0
9666,0.0,0
9667,1.0,0
9668,0.0,0
9669,0.0,0
9670,1.0,0
9671,1.0,0
9672,1.0,0
9673,0.0,0
9674,0.0,0
9675,1.0,0
9676,1.0,0
9677,0.0,0
9678,0.0,0
9679,0.0,0
9680,0.0,0
9681,0.0,0
9682,0.0,0
9683,0.0,0
9684,0.0,0
9685,0.0,0
9686,0.0,0
9687,0.0,0
9688,0.0,0
9689,0.0,0
9690,1.0,0
9691,1.0,0
9692,2.0,0
9693,2.0,0
9694,2.0,0
9695,2.0,0
9696,2.0,0
9697,2.0,0
9698,2.0,0
9699,2.0,0
9700,2.0,0
9701,2.0,0
9702,2.0,0
9703,2.0,0
9704,2.0,0
9705,2.0,0
9706,2.0,0
9707,1.0,0
9708,1.0,0
9709,1.0,0
9710,1.0,0
9711,0.0,0
9712,0.0,0
9713,-2.0,0
9714,-3.0,0
9715,6.0,0
9716,27.0,0
9717,48.0,0
9718,60.0,0
9719,61.0,0
9720,50.0,0
9721,31.0,0
9722,12.0,0
9723,0.0,0
9724,-5.0,0
9725,-8.0,0
9726,-11.0,0
9727,-11.0,0
9728,-11.0,0
9729,-11.0,0
9730,-10.0,0
9731,-10.0,0
9732,-11.0,0
9733,-11.0,0
9734,-11.0,0
9735,-11.0,0
9736,-11.0,0
9737,-11.0,0
9738,-11.0,0
9739,-9.0,0
9740,-8.0,0
9741,-8.0,0
9742,-8.0,0
9743,-8.0,0
9744,-7.0,0
9745,-7.0,0
9746,-7.0,0
9747,-7.0,0
9748,-8.0,0
9749,-8.0,0
9750,-8.0,0
9751,-8.0,0
9752,-8.0,0
9753,-8.0,0
9754,-8.0,0
9755,-8.0,0
9756,-7.0,0
9757,-7.0,0
9758,-7.0,0
9759,-8.0,0
9760,-7.0,0
9761,-7.0,0
9762,-7.0,0
9763,-7.0,0
9764,-7.0,0
9765,-7.0,0
9766,-7.0,0
9767,-7.0,0
9768,-7.0,0
9769,-7.0,0
9770,-7.0,0
9771,-7.0,0
9772,-7.0,0
9773,-7.0,0
9774,-7.0,0
9775,-8.0,0
9776,-8.0,0
9777,-8.0,0
9778,-7.0,0
9779,-6.0,0
9780,-4.0,0
9781,-3.0,0
9782,-3.0,0
9783,-3.0,0
9784,-3.0,0
9785,-3.0,0
9786,-3.0,0
9787,-3.0,0
9788,-3.0,0
9789,-3.0,0
9790,-3.0,0
9791,-2.0,0
9792,-2.0,0
9793,-2.0,0
9794,-2.0,0
9795,-2.0,0
9796,-2.0,0
9797,-2.0,0
9798,-2.0,0
9799,-2.0,0
9800,-2.0,0
9801,-2.0,0
9802,-6.0,0
9803,-9.0,0
9804,0.0,0
9805,19.0,0
9806,42.0,0
9807,56.0,0
9808,57.0,0
9809,48.0,0
9810,29.0,0
9811,10.0,0
9812,-1.0,0
9813,-7.0,0
9814,-9.0,0
9815,-12.0,0
9816,-13.0,0
9817,-13.0,0
9818,-13.0,0
9819,-12.0,0
9820,-12.0,0
9821,-12.0,0
9822,-11.0,0
9823,-11.0,0
9824,-11.0,0
9825,-11.0,0
9826,-9.0,0
9827,-8.0,0
9828,-8.0,0
9829,-8.0,0
9830,-8.0,0
9831,-7.0,0
9832,-7.0,0
9833,-7.0,0
9834,-7.0,0
9835,-7.0,0
9836,-7.0,0
9837,-7.0,0
9838,-8.0,0
9839,-8.0,0
9840,-8.0,0
9841,-7.0,0
9842,-7.0,0
9843,-7.0,0
9844,-6.0,0
9845,-6.0,0
9846,-6.0,0
9847,-6.0,0
9848,-5.0,0
9849,-3.0,0
9850,-3.0,0
9851,-3.0,0
9852,-3.0,0
9853,-2.0,0
9854,-2.0,0
9855,-2.0,0
9856,-2.0,0
9857,-1.0,0
9858,-1.0,0
9859,-1.0,0
9860,0.0,0
9861,0.0,0
9862,0.0,0
9863,0.0,0
9864,0.0,0
9865,0.0,0
9866,0.0,0
9867,0.0,0
9868,0.0,0
9869,2.0,0
9870,4.0,0
9871,5.0,0
9872,6.0,0
9873,6.0,0
9874,6.0,0
9875,6.0,0
9876,6.0,0
9877,6.0,0
9878,6.0,0
9879,6.0,0
9880,5.0,0
9881,5.0,0
9882,4.0,0
9883,3.0,0
9884,3.0,0
9885,3.0,0
9886,3.0,0
9887,3.0,0
9888,2.0,0
9889,2.0,0
9890,2.0,0
9891,1.0,0
9892,0.0,0
9893,0.0,0
9894,10.0,0
9895,30.0,0
9896,52.0,0
9897,61.0,0
9898,62.0,0
9899,50.0,0
9900,30.0,0
9901,11.0,0
9902,0.0,0
9903,-2.0,0
9904,-5.0,0
9905,-7.0,0
9906,-8.0,0
9907,-8.0,0
9908,-8.0,0
9909,-8.0,0
9910,-8.0,0
9911,-7.0,0
9912,-7.0,0
9913,-6.0,0
9914,-6.0,0
9915,-6.0,0
9916,-4.0,0
9917,-4.0,0
9918,-4.0,0
9919,-3.0,0
9920,-3.0,0
9921,-3.0,0
9922,-2.0,0
9923,-2.0,0
9924,-2.0,0
9925,-2.0,0
9926,-3.0,0
9927,-2.0,0
9928,-2.0,0
9929,-3.0,0
9930,-3.0,0
9931,-4.0,0
9932,-4.0,0
9933,-6.0,0
9934,-6.0,0
9935,-6.0,0
9936,-6.0,0
9937,-6.0,0
9938,-5.0,0
9939,-4.0,0
9940,-6.0,0
9941,-6.0,0
9942,-6.0,0
9943,-6.0,0
9944,-5.0,0
9945,-5.0,0
9946,-5.0,0
9947,-5.0,0
9948,-4.0,0
9949,-4.0,0
9950,-4.0,0
9951,-4.0,0
9952,-5.0,0
9953,-6.0,0
9954,-6.0,0
9955,-5.0,0
9956,-4.0,0
9957,-2.0,0
9958,-2.0,0
9959,-1.0,0
9960,-1.0,0
9961,-1.0,0
9962,-1.0,0
9963,0.0,0
9964,0.0,0
9965,0.0,0
9966,0.0,0
9967,0.0,0
9968,0.0,0
9969,0.0,0
9970,0.0,0
9971,0.0,0
9972,0.0,0
9973,0.0,0
9974,0.0,0
9975,0.0,0
9976,0.0,0
9977,0.0,0
9978,0.0,0
9979,0.0,0
9980,-3.0,0
9981,-6.0,0
9982,1.0,0
9983,20.0,0
9984,45.0,0
9985,56.0,0
9986,59.0,0
9987,50.0,0
9988,31.0,0
9989,12.0,0
9990,0.0,0
9991,-6.0,0
9992,-8.0,0
9993,-11.0,0
9994,-12.0,0
9995,-12.0,0
9996,-12.0,0
9997,-12.0,0
9998,-12.0,0
9999,-11.0,0
10000,-11.0,0
10001,-11.0,0
10002,-10.0,0
10003,-10.0,0
10004,-8.0,0
10005,-8.0,0
10006,-7.0,0
10007,-7.0,0
10008,-7.0,0
10009,-7.0,0
10010,-7.0,0
10011,-7.0,0
10012,-7.0,0
10013,-7.0,0
10014,-7.0,0
10015,-7.0,0
10016,-7.0,0
10017,-6.0,0
10018,-6.0,0
10019,-6.0,0
10020,-6.0,0
10021,-6.0,0
10022,-6.0,0
10023,-6.0,0
10024,-5.0,0
10025,-5.0,0
10026,-5.0,0
10027,-5.0,0
10028,-5.0,0
10029,-4.0,0
10030,-4.0,0
10031,-4.0,0
10032,-4.0,0
10033,-4.0,0
10034,-3.0,0
10035,-3.0,0
10036,-3.0,0
10037,-3.0,0
10038,-3.0,0
10039,-3.0,0
10040,-3.0,0
10041,-3.0,0
10042,-3.0,0
10043,-3.0,0
10044,-4.0,0
10045,-3.0,0
10046,-2.0,0
10047,-2.0,0
10048,-1.0,0
10049,-1.0,0
10050,0.0,0
10051,0.0,0
10052,-1.0,0
10053,0.0,0
10054,0.0,0
10055,0.0,0
10056,0.0,0
10057,0.0,0
10058,1.0,0
10059,1.0,0
10060,1.0,0
10061,2.0,0
10062,1.0,0
10063,1.0,0
10064,1.0,0
10065,1.0,0
10066,1.0,0
10067,1.0,0
10068,1.0,0
10069,0.0,0
10070,-1.0,0
10071,-1.0,0
10072,12.0,0
10073,33.0,0
10074,53.0,0
10075,62.0,0
10076,62.0,0
10077,49.0,0
10078,31.0,0
10079,13.0,0
10080,3.0,0
10081,0.0,0
10082,-2.0,0
10083,-3.0,0
10084,-4.0,0
10085,-3.0,0
10086,-3.0,0
10087,-3.0,0
10088,-3.0,0
10089,-2.0,0
10090,-2.0,0
10091,-2.0,0
10092,-1.0,0
10093,-1.0,0
10094,0.0,0
10095,0.0,0
10096,0.0,0
10097,0.0,0
10098,0.0,0
10099,1.0,0
10100,1.0,0
10101,1.0,0
10102,1.0,0
10103,1.0,0
10104,1.0,0
10105,1.0,0
10106,1.0,0
10107,1.0,0
10108,1.0,0
10109,0.0,0
10110,0.0,0
10111,1.0,0
10112,1.0,0
10113,1.0,0
10114,1.0,0
10115,1.0,0
10116,1.0,0
10117,1.0,0
10118,2.0,0
10119,2.0,0
10120,1.0,0
10121,1.0,0
10122,1.0,0
10123,1.0,0
10124,1.0,0
10125,1.0,0
10126,1.0,0
10127,1.0,0
10128,0.0,0
10129,0.0,0
10130,0.0,0
10131,0.0,0
10132,0.0,0
10133,0.0,0
10134,0.0,0
10135,1.0,0
10136,2.0,0
10137,2.0,0
10138,3.0,0
10139,2.0,0
10140,2.0,0
10141,2.0,0
10142,3.0,0
10143,2.0,0
10144,2.0,0
10145,2.0,0
10146,2.0,0
10147,2.0,0
10148,2.0,0
10149,2.0,0
10150,2.0,0
10151,2.0,0
10152,2.0,0
10153,2.0,0
10154,2.0,0
10155,2.0,0
10156,2.0,0
10157,0.0,0
10158,-2.0,0
10159,0.0,0
10160,15.0,0
10161,38.0,0
10162,56.0,0
10163,63.0,0
10164,59.0,0
10165,44.0,0
10166,25.0,0
10167,7.0,0
10168,0.0,0
10169,-5.0,0
10170,-7.0,0
10171,-9.0,0
10172,-10.0,0
10173,-10.0,0
10174,-10.0,0
10175,-9.0,0
10176,-9.0,0
10177,-9.0,0
10178,-10.0,0
10179,-9.0,0
10180,-8.0,0
10181,-8.0,0
10182,-8.0,0
10183,-8.0,0
10184,-8.0,0
10185,-7.0,0
10186,-7.0,0
10187,-7.0,0
10188,-6.0,0
10189,-6.0,0
10190,-6.0,0
10191,-7.0,0
10192,-7.0,0
10193,-7.0,0
10194,-7.0,0
10195,-7.0,0
10196,-7.0,0
10197,-7.0,0
10198,-7.0,0
10199,-7.0,0
10200,-7.0,0
10201,-7.0,0
10202,-7.0,0
10203,-7.0,0
10204,-6.0,0
10205,-6.0,0
10206,-6.0,0
10207,-6.0,0
10208,-6.0,0
10209,-6.0,0
10210,-6.0,0
10211,-6.0,0
10212,-6.0,0
10213,-6.0,0
10214,-6.0,0
10215,-6.0,0
10216,-6.0,0
10217,-6.0,0
10218,-6.0,0
10219,-6.0,0
10220,-7.0,0
10221,-7.0,0
10222,-6.0,0
10223,-5.0,0
10224,-3.0,0
10225,-2.0,0
10226,-2.0,0
10227,-2.0,0
10228,-2.0,0
10229,-2.0,0
10230,-2.0,0
10231,-2.0,0
10232,-2.0,0
10233,-2.0,0
10234,-2.0,0
10235,-2.0,0
10236,-2.0,0
10237,-2.0,0
10238,-2.0,0
10239,-2.0,0
10240,-2.0,0
10241,-2.0,0
10242,-2.0,0
10243,-2.0,0
10244,-2.0,0
10245,-2.0,0
10246,-2.0,0
10247,-8.0,0
10248,-5.0,0
10249,7.0,0
10250,30.0,0
10251,49.0,0
10252,57.0,0
10253,55.0,0
10254,41.0,0
10255,22.0,0
10256,5.0,0
10257,-4.0,0
10258,-8.0,0
10259,-11.0,0
10260,-12.0,0
10261,-13.0,0
10262,-12.0,0
10263,-12.0,0
10264,-12.0,0
10265,-12.0,0
10266,-12.0,0
10267,-11.0,0
10268,-11.0,0
10269,-10.0,0
10270,-9.0,0
10271,-9.0,0
10272,-8.0,0
10273,-8.0,0
10274,-8.0,0
10275,-8.0,0
10276,-7.0,0
10277,-7.0,0
10278,-7.0,0
10279,-7.0,0
10280,-7.0,0
10281,-7.0,0
10282,-7.0,0
10283,-7.0,0
10284,-7.0,0
10285,-8.0,0
10286,-6.0,0
10287,-6.0,0
10288,-6.0,0
