timestamp,value,is_anomaly
0,-33.0,0
1,-33.0,0
2,-32.0,0
3,-36.0,0
4,-35.0,0
5,-38.0,0
6,-35.0,0
7,-36.0,0
8,-32.0,0
9,-29.0,0
10,-25.0,0
11,-22.0,0
12,-17.0,0
13,-14.0,0
14,-11.0,0
15,-7.0,0
16,-9.0,0
17,-6.0,0
18,-1.0,0
19,1.0,0
20,6.0,0
21,10.0,0
22,10.0,0
23,14.0,0
24,16.0,0
25,12.0,0
26,11.0,0
27,8.0,0
28,6.0,0
29,8.0,0
30,10.0,0
31,7.0,0
32,5.0,0
33,7.0,0
34,13.0,0
35,10.0,0
36,7.0,0
37,4.0,0
38,6.0,0
39,3.0,0
40,3.0,0
41,4.0,0
42,7.0,0
43,6.0,0
44,2.0,0
45,2.0,0
46,3.0,0
47,3.0,0
48,0.0,0
49,0.0,0
50,3.0,0
51,4.0,0
52,3.0,0
53,2.0,0
54,3.0,0
55,6.0,0
56,4.0,0
57,3.0,0
58,1.0,0
59,0.0,0
60,1.0,0
61,0.0,0
62,0.0,0
63,2.0,0
64,2.0,0
65,3.0,0
66,6.0,0
67,3.0,0
68,0.0,0
69,1.0,0
70,2.0,0
71,3.0,0
72,3.0,0
73,2.0,0
74,0.0,0
75,0.0,0
76,2.0,0
77,5.0,0
78,3.0,0
79,3.0,0
80,4.0,0
81,3.0,0
82,0.0,0
83,2.0,0
84,1.0,0
85,3.0,0
86,1.0,0
87,0.0,0
88,1.0,0
89,3.0,0
90,4.0,0
91,6.0,0
92,4.0,0
93,2.0,0
94,2.0,0
95,3.0,0
96,10.0,0
97,11.0,0
98,10.0,0
99,5.0,0
100,2.0,0
101,1.0,0
102,0.0,0
103,0.0,0
104,1.0,0
105,2.0,0
106,1.0,0
107,0.0,0
108,0.0,0
109,1.0,0
110,2.0,0
111,2.0,0
112,7.0,0
113,13.0,0
114,12.0,0
115,15.0,0
116,26.0,0
117,30.0,0
118,25.0,0
119,29.0,0
120,54.0,0
121,84.0,0
122,108.0,0
123,135.0,0
124,155.0,0
125,166.0,0
126,135.0,0
127,47.0,0
128,-1.0,0
129,-15.0,0
130,-19.0,0
131,-22.0,0
132,-24.0,0
133,-22.0,0
134,-26.0,0
135,-30.0,0
136,-29.0,0
137,-29.0,0
138,-26.0,0
139,-23.0,0
140,-23.0,0
141,-26.0,0
142,-22.0,0
143,-22.0,0
144,-25.0,0
145,-26.0,0
146,-26.0,0
147,-24.0,0
148,-24.0,0
149,-25.0,0
150,-25.0,0
151,-24.0,0
152,-24.0,0
153,-24.0,0
154,-24.0,0
155,-24.0,0
156,-25.0,0
157,-26.0,0
158,-27.0,0
159,-26.0,0
160,-32.0,0
161,-34.0,0
162,-32.0,0
163,-31.0,0
164,-32.0,0
165,-32.0,0
166,-33.0,0
167,-38.0,0
168,-33.0,0
169,-37.0,0
170,-37.0,0
171,-37.0,0
172,-38.0,0
173,-33.0,0
174,-32.0,0
175,-27.0,0
176,-27.0,0
177,-22.0,0
178,-17.0,0
179,-9.0,0
180,-5.0,0
181,-1.0,0
182,0.0,0
183,0.0,0
184,2.0,0
185,6.0,0
186,7.0,0
187,8.0,0
188,8.0,0
189,8.0,0
190,9.0,0
191,11.0,0
192,13.0,0
193,15.0,0
194,15.0,0
195,10.0,0
196,7.0,0
197,5.0,0
198,8.0,0
199,10.0,0
200,8.0,0
201,8.0,0
202,7.0,0
203,7.0,0
204,7.0,0
205,6.0,0
206,4.0,0
207,4.0,0
208,2.0,0
209,5.0,0
210,5.0,0
211,5.0,0
212,4.0,0
213,6.0,0
214,6.0,0
215,4.0,0
216,4.0,0
217,3.0,0
218,3.0,0
219,4.0,0
220,3.0,0
221,3.0,0
222,3.0,0
223,0.0,0
224,3.0,0
225,5.0,0
226,8.0,0
227,6.0,0
228,2.0,0
229,2.0,0
230,3.0,0
231,2.0,0
232,1.0,0
233,1.0,0
234,1.0,0
235,3.0,0
236,5.0,0
237,3.0,0
238,1.0,0
239,2.0,0
240,2.0,0
241,2.0,0
242,5.0,0
243,6.0,0
244,2.0,0
245,0.0,0
246,0.0,0
247,0.0,0
248,0.0,0
249,1.0,0
250,3.0,0
251,4.0,0
252,4.0,0
253,3.0,0
254,1.0,0
255,0.0,0
256,0.0,0
257,2.0,0
258,1.0,0
259,0.0,0
260,0.0,0
261,3.0,0
262,2.0,0
263,4.0,0
264,8.0,0
265,7.0,0
266,3.0,0
267,0.0,0
268,-2.0,0
269,-4.0,0
270,-4.0,0
271,-3.0,0
272,-1.0,0
273,0.0,0
274,0.0,0
275,0.0,0
276,0.0,0
277,0.0,0
278,0.0,0
279,4.0,0
280,10.0,0
281,14.0,0
282,20.0,0
283,25.0,0
284,25.0,0
285,24.0,0
286,28.0,0
287,49.0,0
288,80.0,0
289,109.0,0
290,137.0,0
291,150.0,0
292,155.0,0
293,116.0,0
294,40.0,0
295,-1.0,0
296,-16.0,0
297,-21.0,0
298,-21.0,0
299,-25.0,0
300,-26.0,0
301,-25.0,0
302,-28.0,0
303,-25.0,0
304,-28.0,0
305,-25.0,0
306,-28.0,0
307,-24.0,0
308,-24.0,0
309,-21.0,0
310,-23.0,0
311,-23.0,0
312,-23.0,0
313,-22.0,0
314,-22.0,0
315,-23.0,0
316,-22.0,0
317,-22.0,0
318,-26.0,0
319,-27.0,0
320,-23.0,0
321,-20.0,0
322,-22.0,0
323,-25.0,0
324,-26.0,0
325,-26.0,0
326,-27.0,0
327,-29.0,0
328,-28.0,0
329,-27.0,0
330,-29.0,0
331,-30.0,0
332,-34.0,0
333,-34.0,0
334,-38.0,0
335,-36.0,0
336,-32.0,0
337,-32.0,0
338,-34.0,0
339,-31.0,0
340,-28.0,0
341,-26.0,0
342,-28.0,0
343,-26.0,0
344,-19.0,0
345,-18.0,0
346,-18.0,0
347,-9.0,0
348,-2.0,0
349,1.0,0
350,3.0,0
351,6.0,0
352,7.0,0
353,9.0,0
354,11.0,0
355,11.0,0
356,12.0,0
357,17.0,0
358,14.0,0
359,9.0,0
360,8.0,0
361,9.0,0
362,11.0,0
363,11.0,0
364,10.0,0
365,9.0,0
366,8.0,0
367,8.0,0
368,8.0,0
369,8.0,0
370,8.0,0
371,8.0,0
372,8.0,0
373,8.0,0
374,9.0,0
375,6.0,0
376,3.0,0
377,3.0,0
378,7.0,0
379,4.0,0
380,4.0,0
381,6.0,0
382,6.0,0
383,4.0,0
384,4.0,0
385,3.0,0
386,3.0,0
387,4.0,0
388,4.0,0
389,4.0,0
390,4.0,0
391,2.0,0
392,1.0,0
393,4.0,0
394,8.0,0
395,3.0,0
396,4.0,0
397,6.0,0
398,4.0,0
399,2.0,0
400,2.0,0
401,1.0,0
402,1.0,0
403,2.0,0
404,2.0,0
405,2.0,0
406,3.0,0
407,1.0,0
408,0.0,0
409,0.0,0
410,0.0,0
411,1.0,0
412,1.0,0
413,0.0,0
414,0.0,0
415,2.0,0
416,0.0,0
417,0.0,0
418,1.0,0
419,3.0,0
420,0.0,0
421,1.0,0
422,0.0,0
423,0.0,0
424,1.0,0
425,0.0,0
426,0.0,0
427,0.0,0
428,0.0,0
429,1.0,0
430,3.0,0
431,5.0,0
432,6.0,0
433,3.0,0
434,1.0,0
435,0.0,0
436,0.0,0
437,0.0,0
438,0.0,0
439,0.0,0
440,0.0,0
441,0.0,0
442,0.0,0
443,0.0,0
444,-1.0,0
445,0.0,0
446,7.0,0
447,16.0,0
448,17.0,0
449,14.0,0
450,23.0,0
451,34.0,0
452,33.0,0
453,33.0,0
454,55.0,0
455,83.0,0
456,111.0,0
457,139.0,0
458,158.0,0
459,162.0,0
460,137.0,0
461,59.0,0
462,7.0,0
463,-6.0,0
464,-16.0,0
465,-20.0,0
466,-20.0,0
467,-22.0,0
468,-24.0,0
469,-23.0,0
470,-25.0,0
471,-20.0,0
472,-22.0,0
473,-24.0,0
474,-25.0,0
475,-24.0,0
476,-24.0,0
477,-22.0,0
478,-22.0,0
479,-23.0,0
480,-22.0,0
481,-19.0,0
482,-20.0,0
483,-23.0,0
484,-24.0,0
485,-24.0,0
486,-22.0,0
487,-23.0,0
488,-23.0,0
489,-23.0,0
490,-23.0,0
491,-22.0,0
492,-22.0,0
493,-26.0,0
494,-28.0,0
495,-26.0,0
496,-25.0,0
497,-27.0,0
498,-30.0,0
499,-34.0,0
500,-39.0,0
501,-41.0,0
502,-40.0,0
503,-37.0,0
504,-38.0,0
505,-36.0,0
506,-30.0,0
507,-28.0,0
508,-26.0,0
509,-23.0,0
510,-21.0,0
511,-18.0,0
512,-18.0,0
513,-13.0,0
514,-6.0,0
515,-5.0,0
516,0.0,0
517,3.0,0
518,8.0,0
519,8.0,0
520,9.0,0
521,10.0,0
522,18.0,0
523,18.0,0
524,19.0,0
525,21.0,0
526,21.0,0
527,21.0,0
528,21.0,0
529,20.0,0
530,12.0,0
531,5.0,0
532,7.0,0
533,8.0,0
534,6.0,0
535,6.0,0
536,7.0,0
537,4.0,0
538,3.0,0
539,5.0,0
540,5.0,0
541,4.0,0
542,3.0,0
543,3.0,0
544,5.0,0
545,5.0,0
546,8.0,0
547,8.0,0
548,3.0,0
549,0.0,0
550,1.0,0
551,3.0,0
552,3.0,0
553,3.0,0
554,2.0,0
555,3.0,0
556,3.0,0
557,2.0,0
558,3.0,0
559,2.0,0
560,1.0,0
561,2.0,0
562,1.0,0
563,3.0,0
564,3.0,0
565,1.0,0
566,1.0,0
567,2.0,0
568,1.0,0
569,2.0,0
570,1.0,0
571,2.0,0
572,4.0,0
573,2.0,0
574,2.0,0
575,1.0,0
576,1.0,0
577,0.0,0
578,0.0,0
579,0.0,0
580,1.0,0
581,1.0,0
582,2.0,0
583,3.0,0
584,2.0,0
585,1.0,0
586,2.0,0
587,3.0,0
588,1.0,0
589,0.0,0
590,0.0,0
591,1.0,0
592,2.0,0
593,3.0,0
594,4.0,0
595,6.0,0
596,8.0,0
597,12.0,0
598,12.0,0
599,4.0,0
600,1.0,0
601,0.0,0
602,0.0,0
603,2.0,0
604,1.0,0
605,0.0,0
606,0.0,0
607,0.0,0
608,0.0,0
609,0.0,0
610,0.0,0
611,0.0,0
612,11.0,0
613,20.0,0
614,22.0,0
615,26.0,0
616,35.0,0
617,36.0,0
618,33.0,0
619,43.0,0
620,69.0,0
621,98.0,0
622,126.0,0
623,147.0,0
624,162.0,0
625,155.0,0
626,99.0,0
627,30.0,0
628,-2.0,0
629,-12.0,0
630,-19.0,0
631,-18.0,0
632,-21.0,0
633,-21.0,0
634,-21.0,0
635,-22.0,0
636,-22.0,0
637,-26.0,0
638,-25.0,0
639,-24.0,0
640,-20.0,0
641,-20.0,0
642,-20.0,0
643,-21.0,0
644,-12.0,0
645,-17.0,0
646,-19.0,0
647,-21.0,0
648,-20.0,0
649,-21.0,0
650,-22.0,0
651,-22.0,0
652,-20.0,0
653,-22.0,0
654,-20.0,0
655,-20.0,0
656,-18.0,0
657,-19.0,0
658,-22.0,0
659,-23.0,0
660,-23.0,0
661,-24.0,0
662,-27.0,0
663,-29.0,0
664,-30.0,0
665,-33.0,0
666,-34.0,0
667,-34.0,0
668,-38.0,0
669,-41.0,0
670,-41.0,0
671,-39.0,0
672,-36.0,0
673,-32.0,0
674,-28.0,0
675,-26.0,0
676,-24.0,0
677,-20.0,0
678,-15.0,0
679,-10.0,0
680,-10.0,0
681,-4.0,0
682,-2.0,0
683,0.0,0
684,3.0,0
685,7.0,0
686,7.0,0
687,8.0,0
688,10.0,0
689,11.0,0
690,17.0,0
691,13.0,0
692,9.0,0
693,10.0,0
694,8.0,0
695,10.0,0
696,8.0,0
697,8.0,0
698,8.0,0
699,10.0,0
700,7.0,0
701,6.0,0
702,7.0,0
703,6.0,0
704,5.0,0
705,5.0,0
706,5.0,0
707,4.0,0
708,4.0,0
709,6.0,0
710,6.0,0
711,5.0,0
712,4.0,0
713,4.0,0
714,5.0,0
715,1.0,0
716,1.0,0
717,4.0,0
718,3.0,0
719,1.0,0
720,1.0,0
721,3.0,0
722,0.0,0
723,0.0,0
724,0.0,0
725,0.0,0
726,0.0,0
727,0.0,0
728,0.0,0
729,1.0,0
730,1.0,0
731,0.0,0
732,0.0,0
733,0.0,0
734,0.0,0
735,2.0,0
736,1.0,0
737,-1.0,0
738,0.0,0
739,1.0,0
740,0.0,0
741,-2.0,0
742,0.0,0
743,0.0,0
744,0.0,0
745,-1.0,0
746,0.0,0
747,0.0,0
748,-1.0,0
749,0.0,0
750,0.0,0
751,0.0,0
752,0.0,0
753,0.0,0
754,0.0,0
755,0.0,0
756,0.0,0
757,0.0,0
758,1.0,0
759,1.0,0
760,2.0,0
761,1.0,0
762,1.0,0
763,5.0,0
764,8.0,0
765,4.0,0
766,0.0,0
767,0.0,0
768,-3.0,0
769,-3.0,0
770,0.0,0
771,0.0,0
772,0.0,0
773,-5.0,0
774,-3.0,0
775,0.0,0
776,0.0,0
777,-3.0,0
778,-2.0,0
779,5.0,0
780,17.0,0
781,19.0,0
782,24.0,0
783,32.0,0
784,32.0,0
785,29.0,0
786,44.0,0
787,72.0,0
788,101.0,0
789,129.0,0
790,147.0,0
791,159.0,0
792,145.0,0
793,80.0,0
794,16.0,0
795,-10.0,0
796,-20.0,0
797,-24.0,0
798,-27.0,0
799,-27.0,0
800,-24.0,0
801,-24.0,0
802,-26.0,0
803,-27.0,0
804,-29.0,0
805,-29.0,0
806,-28.0,0
807,-24.0,0
808,-24.0,0
809,-24.0,0
810,-24.0,0
811,-26.0,0
812,-28.0,0
813,-29.0,0
814,-26.0,0
815,-25.0,0
816,-28.0,0
817,-29.0,0
818,-25.0,0
819,-24.0,0
820,-24.0,0
821,-30.0,0
822,-32.0,0
823,-31.0,0
824,-32.0,0
825,-30.0,0
826,-31.0,0
827,-33.0,0
828,-35.0,0
829,-37.0,0
830,-39.0,0
831,-43.0,0
832,-44.0,0
833,-45.0,0
834,-46.0,0
835,-46.0,0
836,-45.0,0
837,-46.0,0
838,-45.0,0
839,-42.0,0
840,-39.0,0
841,-36.0,0
842,-30.0,0
843,-28.0,0
844,-25.0,0
845,-22.0,0
846,-12.0,0
847,-8.0,0
848,-7.0,0
849,-3.0,0
850,0.0,0
851,0.0,0
852,1.0,0
853,4.0,0
854,4.0,0
855,5.0,0
856,7.0,0
857,8.0,0
858,10.0,0
859,8.0,0
860,8.0,0
861,7.0,0
862,7.0,0
863,4.0,0
864,4.0,0
865,4.0,0
866,4.0,0
867,1.0,0
868,1.0,0
869,2.0,0
870,4.0,0
871,5.0,0
872,3.0,0
873,3.0,0
874,2.0,0
875,1.0,0
876,0.0,0
877,1.0,0
878,0.0,0
879,0.0,0
880,-2.0,0
881,-2.0,0
882,-1.0,0
883,0.0,0
884,0.0,0
885,0.0,0
886,1.0,0
887,0.0,0
888,0.0,0
889,0.0,0
890,1.0,0
891,-2.0,0
892,-3.0,0
893,-2.0,0
894,0.0,0
895,0.0,0
896,-2.0,0
897,-2.0,0
898,-1.0,0
899,-1.0,0
900,0.0,0
901,-2.0,0
902,-1.0,0
903,-2.0,0
904,-3.0,0
905,-2.0,0
906,-2.0,0
907,-3.0,0
908,-1.0,0
909,-1.0,0
910,-2.0,0
911,-1.0,0
912,0.0,0
913,0.0,0
914,0.0,0
915,0.0,0
916,-2.0,0
917,-6.0,0
918,-6.0,0
919,-2.0,0
920,0.0,0
921,-1.0,0
922,-3.0,0
923,-3.0,0
924,-3.0,0
925,-3.0,0
926,-2.0,0
927,-1.0,0
928,0.0,0
929,2.0,0
930,5.0,0
931,3.0,0
932,4.0,0
933,0.0,0
934,-3.0,0
935,-3.0,0
936,-2.0,0
937,-2.0,0
938,-3.0,0
939,-7.0,0
940,-3.0,0
941,-4.0,0
942,-3.0,0
943,-3.0,0
944,-3.0,0
945,0.0,0
946,6.0,0
947,10.0,0
948,9.0,0
949,18.0,0
950,24.0,0
951,26.0,0
952,24.0,0
953,42.0,0
954,68.0,0
955,93.0,0
956,120.0,0
957,140.0,0
958,153.0,0
959,139.0,0
960,78.0,0
961,16.0,0
962,-11.0,0
963,-22.0,0
964,-26.0,0
965,-29.0,0
966,-29.0,0
967,-29.0,0
968,-27.0,0
969,-26.0,0
970,-30.0,0
971,-34.0,0
972,-32.0,0
973,-29.0,0
974,-28.0,0
975,-25.0,0
976,-24.0,0
977,-27.0,0
978,-28.0,0
979,-24.0,0
980,-29.0,0
981,-28.0,0
982,-27.0,0
983,-27.0,0
984,-27.0,0
985,-19.0,0
986,-16.0,0
987,-20.0,0
988,-25.0,0
989,-22.0,0
990,-23.0,0
991,-27.0,0
992,-29.0,0
993,-26.0,0
994,-24.0,0
995,-27.0,0
996,-31.0,0
997,-30.0,0
998,-33.0,0
999,-39.0,0
1000,-41.0,0
1001,-41.0,0
1002,-41.0,0
1003,-41.0,0
1004,-40.0,0
1005,-37.0,0
1006,-34.0,0
1007,-33.0,0
1008,-33.0,0
1009,-29.0,0
1010,-25.0,0
1011,-20.0,0
1012,-19.0,0
1013,-15.0,0
1014,-9.0,0
1015,-6.0,0
1016,-1.0,0
1017,0.0,0
1018,1.0,0
1019,4.0,0
1020,8.0,0
1021,9.0,0
1022,11.0,0
1023,9.0,0
1024,8.0,0
1025,9.0,0
1026,11.0,0
1027,9.0,0
1028,8.0,0
1029,7.0,0
1030,7.0,0
1031,8.0,0
1032,7.0,0
1033,6.0,0
1034,7.0,0
1035,8.0,0
1036,5.0,0
1037,5.0,0
1038,6.0,0
1039,4.0,0
1040,2.0,0
1041,3.0,0
1042,5.0,0
1043,7.0,0
1044,6.0,0
1045,6.0,0
1046,7.0,0
1047,7.0,0
1048,5.0,0
1049,4.0,0
1050,4.0,0
1051,5.0,0
1052,5.0,0
1053,3.0,0
1054,3.0,0
1055,3.0,0
1056,1.0,0
1057,4.0,0
1058,5.0,0
1059,4.0,0
1060,4.0,0
1061,3.0,0
1062,3.0,0
1063,3.0,0
1064,4.0,0
1065,5.0,0
1066,7.0,0
1067,5.0,0
1068,3.0,0
1069,2.0,0
1070,4.0,0
1071,5.0,0
1072,5.0,0
1073,7.0,0
1074,7.0,0
1075,3.0,0
1076,3.0,0
1077,3.0,0
1078,3.0,0
1079,4.0,0
1080,6.0,0
1081,7.0,0
1082,5.0,0
1083,7.0,0
1084,6.0,0
1085,4.0,0
1086,4.0,0
1087,5.0,0
1088,6.0,0
1089,5.0,0
1090,6.0,0
1091,6.0,0
1092,5.0,0
1093,6.0,0
1094,6.0,0
1095,6.0,0
1096,9.0,0
1097,12.0,0
1098,13.0,0
1099,16.0,0
1100,11.0,0
1101,5.0,0
1102,5.0,0
1103,1.0,0
1104,6.0,0
1105,7.0,0
1106,4.0,0
1107,3.0,0
1108,1.0,0
1109,1.0,0
1110,1.0,0
1111,3.0,0
1112,2.0,0
1113,3.0,0
1114,18.0,0
1115,24.0,0
1116,25.0,0
1117,38.0,0
1118,44.0,0
1119,37.0,0
1120,32.0,0
1121,49.0,0
1122,77.0,0
1123,109.0,0
1124,139.0,0
1125,154.0,0
1126,165.0,0
1127,141.0,0
1128,76.0,0
1129,19.0,0
1130,-5.0,0
1131,-16.0,0
1132,-22.0,0
1133,-20.0,0
1134,-21.0,0
1135,-24.0,0
1136,-24.0,0
1137,-24.0,0
1138,-24.0,0
1139,-24.0,0
1140,-23.0,0
1141,-22.0,0
1142,-23.0,0
1143,-24.0,0
1144,-23.0,0
1145,-21.0,0
1146,-20.0,0
1147,-21.0,0
1148,-22.0,0
1149,-23.0,0
1150,-22.0,0
1151,-18.0,0
1152,-21.0,0
1153,-20.0,0
1154,-20.0,0
1155,-20.0,0
1156,-21.0,0
1157,-21.0,0
1158,-23.0,0
1159,-24.0,0
1160,-24.0,0
1161,-24.0,0
1162,-27.0,0
1163,-27.0,0
1164,-26.0,0
1165,-30.0,0
1166,-35.0,0
1167,-37.0,0
1168,-33.0,0
1169,-31.0,0
1170,-32.0,0
1171,-31.0,0
1172,-31.0,0
1173,-29.0,0
1174,-29.0,0
1175,-29.0,0
1176,-26.0,0
1177,-21.0,0
1178,-17.0,0
1179,-13.0,0
1180,-11.0,0
1181,-8.0,0
1182,-2.0,0
1183,1.0,0
1184,4.0,0
1185,4.0,0
1186,5.0,0
1187,11.0,0
1188,19.0,0
1189,14.0,0
1190,16.0,0
1191,14.0,0
1192,17.0,0
1193,18.0,0
1194,17.0,0
1195,18.0,0
1196,14.0,0
1197,16.0,0
1198,14.0,0
1199,20.0,0
1200,14.0,0
1201,12.0,0
1202,13.0,0
1203,10.0,0
1204,8.0,0
1205,10.0,0
1206,8.0,0
1207,4.0,0
1208,3.0,0
1209,4.0,0
1210,4.0,0
1211,6.0,0
1212,6.0,0
1213,3.0,0
1214,3.0,0
1215,3.0,0
1216,3.0,0
1217,3.0,0
1218,3.0,0
1219,2.0,0
1220,2.0,0
1221,0.0,0
1222,0.0,0
1223,0.0,0
1224,0.0,0
1225,0.0,0
1226,2.0,0
1227,1.0,0
1228,0.0,0
1229,0.0,0
1230,0.0,0
1231,3.0,0
1232,3.0,0
1233,3.0,0
1234,0.0,0
1235,0.0,0
1236,0.0,0
1237,1.0,0
1238,2.0,0
1239,3.0,0
1240,2.0,0
1241,1.0,0
1242,0.0,0
1243,0.0,0
1244,1.0,0
1245,2.0,0
1246,0.0,0
1247,0.0,0
1248,1.0,0
1249,3.0,0
1250,3.0,0
1251,2.0,0
1252,2.0,0
1253,1.0,0
1254,2.0,0
1255,4.0,0
1256,2.0,0
1257,0.0,0
1258,0.0,0
1259,0.0,0
1260,2.0,0
1261,3.0,0
1262,4.0,0
1263,4.0,0
1264,6.0,0
1265,9.0,0
1266,9.0,0
1267,5.0,0
1268,0.0,0
1269,0.0,0
1270,0.0,0
1271,2.0,0
1272,2.0,0
1273,1.0,0
1274,0.0,0
1275,0.0,0
1276,0.0,0
1277,-1.0,0
1278,0.0,0
1279,0.0,0
1280,5.0,0
1281,19.0,0
1282,21.0,0
1283,22.0,0
1284,32.0,0
1285,40.0,0
1286,33.0,0
1287,37.0,0
1288,58.0,0
1289,85.0,0
1290,115.0,0
1291,143.0,0
1292,156.0,0
1293,168.0,0
1294,126.0,0
1295,51.0,0
1296,5.0,0
1297,-9.0,0
1298,-12.0,0
1299,-15.0,0
1300,-20.0,0
1301,-23.0,0
1302,-23.0,0
1303,-21.0,0
1304,-21.0,0
1305,-23.0,0
1306,-24.0,0
1307,-22.0,0
1308,-21.0,0
1309,-23.0,0
1310,-24.0,0
1311,-24.0,0
1312,-24.0,0
1313,-23.0,0
1314,-21.0,0
1315,-20.0,0
1316,-20.0,0
1317,-21.0,0
1318,-22.0,0
1319,-21.0,0
1320,-22.0,0
1321,-22.0,0
1322,-22.0,0
1323,-22.0,0
1324,-23.0,0
1325,-24.0,0
1326,-23.0,0
1327,-21.0,0
1328,-22.0,0
1329,-26.0,0
1330,-27.0,0
1331,-28.0,0
1332,-29.0,0
1333,-31.0,0
1334,-37.0,0
1335,-39.0,0
1336,-40.0,0
1337,-39.0,0
1338,-39.0,0
1339,-39.0,0
1340,-37.0,0
1341,-34.0,0
1342,-31.0,0
1343,-28.0,0
1344,-23.0,0
1345,-17.0,0
1346,-12.0,0
1347,-6.0,0
1348,-4.0,0
1349,-2.0,0
1350,1.0,0
1351,4.0,0
1352,8.0,0
1353,6.0,0
1354,5.0,0
1355,8.0,0
1356,10.0,0
1357,10.0,0
1358,12.0,0
1359,11.0,0
1360,11.0,0
1361,12.0,0
1362,11.0,0
1363,8.0,0
1364,7.0,0
1365,4.0,0
1366,7.0,0
1367,11.0,0
1368,6.0,0
1369,5.0,0
1370,2.0,0
1371,2.0,0
1372,4.0,0
1373,2.0,0
1374,3.0,0
1375,4.0,0
1376,4.0,0
1377,4.0,0
1378,5.0,0
1379,2.0,0
1380,3.0,0
1381,4.0,0
1382,2.0,0
1383,2.0,0
1384,1.0,0
1385,1.0,0
1386,2.0,0
1387,1.0,0
1388,0.0,0
1389,0.0,0
1390,0.0,0
1391,0.0,0
1392,1.0,0
1393,2.0,0
1394,1.0,0
1395,0.0,0
1396,0.0,0
1397,0.0,0
1398,0.0,0
1399,2.0,0
1400,2.0,0
1401,2.0,0
1402,1.0,0
1403,0.0,0
1404,0.0,0
1405,0.0,0
1406,0.0,0
1407,0.0,0
1408,2.0,0
1409,2.0,0
1410,0.0,0
1411,-1.0,0
1412,-2.0,0
1413,-1.0,0
1414,0.0,0
1415,0.0,0
1416,0.0,0
1417,2.0,0
1418,0.0,0
1419,0.0,0
1420,0.0,0
1421,0.0,0
1422,0.0,0
1423,0.0,0
1424,1.0,0
1425,2.0,0
1426,1.0,0
1427,0.0,0
1428,0.0,0
1429,2.0,0
1430,5.0,0
1431,8.0,0
1432,8.0,0
1433,6.0,0
1434,3.0,0
1435,0.0,0
1436,-2.0,0
1437,-2.0,0
1438,0.0,0
1439,0.0,0
1440,0.0,0
1441,0.0,0
1442,0.0,0
1443,-1.0,0
1444,-1.0,0
1445,-5.0,0
1446,-1.0,0
1447,8.0,0
1448,22.0,0
1449,14.0,0
1450,23.0,0
1451,34.0,0
1452,34.0,0
1453,27.0,0
1454,43.0,0
1455,71.0,0
1456,99.0,0
1457,137.0,0
1458,153.0,0
1459,160.0,0
1460,148.0,0
1461,76.0,0
1462,16.0,0
1463,-8.0,0
1464,-17.0,0
1465,-20.0,0
1466,-23.0,0
1467,-23.0,0
1468,-23.0,0
1469,-24.0,0
1470,-25.0,0
1471,-23.0,0
1472,-23.0,0
1473,-24.0,0
1474,-23.0,0
1475,-19.0,0
1476,-19.0,0
1477,-24.0,0
1478,-25.0,0
1479,-23.0,0
1480,-23.0,0
1481,-23.0,0
1482,-23.0,0
1483,-24.0,0
1484,-23.0,0
1485,-20.0,0
1486,-20.0,0
1487,-23.0,0
1488,-22.0,0
1489,-22.0,0
1490,-23.0,0
1491,-28.0,0
1492,-24.0,0
1493,-26.0,0
1494,-28.0,0
1495,-27.0,0
1496,-34.0,0
1497,-33.0,0
1498,-32.0,0
1499,-39.0,0
1500,-39.0,0
1501,-40.0,0
1502,-42.0,0
1503,-41.0,0
1504,-42.0,0
1505,-44.0,0
1506,-42.0,0
1507,-41.0,0
1508,-37.0,0
1509,-31.0,0
1510,-23.0,0
1511,-20.0,0
1512,-19.0,0
1513,-13.0,0
1514,-10.0,0
1515,-9.0,0
1516,-4.0,0
1517,1.0,0
1518,1.0,0
1519,0.0,0
1520,4.0,0
1521,7.0,0
1522,8.0,0
1523,12.0,0
1524,12.0,0
1525,12.0,0
1526,11.0,0
1527,9.0,0
1528,6.0,0
1529,6.0,0
1530,7.0,0
1531,3.0,0
1532,2.0,0
1533,4.0,0
1534,1.0,0
1535,0.0,0
1536,0.0,0
1537,1.0,0
1538,1.0,0
1539,1.0,0
1540,2.0,0
1541,0.0,0
1542,0.0,0
1543,0.0,0
1544,2.0,0
1545,0.0,0
1546,0.0,0
1547,0.0,0
1548,0.0,0
1549,-1.0,0
1550,0.0,0
1551,-1.0,0
1552,-1.0,0
1553,-1.0,0
1554,0.0,0
1555,0.0,0
1556,1.0,0
1557,1.0,0
1558,0.0,0
1559,0.0,0
1560,-2.0,0
1561,-3.0,0
1562,-2.0,0
1563,-1.0,0
1564,-1.0,0
1565,-3.0,0
1566,-4.0,0
1567,-2.0,0
1568,0.0,0
1569,0.0,0
1570,0.0,0
1571,0.0,0
1572,0.0,0
1573,0.0,0
1574,0.0,0
1575,0.0,0
1576,0.0,0
1577,0.0,0
1578,0.0,0
1579,0.0,0
1580,0.0,0
1581,2.0,0
1582,0.0,0
1583,0.0,0
1584,0.0,0
1585,0.0,0
1586,0.0,0
1587,0.0,0
1588,0.0,0
1589,0.0,0
1590,1.0,0
1591,0.0,0
1592,0.0,0
1593,0.0,0
1594,0.0,0
1595,0.0,0
1596,0.0,0
1597,0.0,0
1598,3.0,0
1599,2.0,0
1600,0.0,0
1601,-3.0,0
1602,-4.0,0
1603,0.0,0
1604,1.0,0
1605,0.0,0
1606,0.0,0
1607,-1.0,0
1608,0.0,0
1609,0.0,0
1610,0.0,0
1611,-2.0,0
1612,0.0,0
1613,5.0,0
1614,13.0,0
1615,9.0,0
1616,12.0,0
1617,24.0,0
1618,26.0,0
1619,23.0,0
1620,27.0,0
1621,51.0,0
1622,85.0,0
1623,115.0,0
1624,142.0,0
1625,153.0,0
1626,161.0,0
1627,106.0,0
1628,34.0,0
1629,-2.0,0
1630,-17.0,0
1631,-22.0,0
1632,-25.0,0
1633,-28.0,0
1634,-25.0,0
1635,-23.0,0
1636,-25.0,0
1637,-30.0,0
1638,-30.0,0
1639,-27.0,0
1640,-26.0,0
1641,-28.0,0
1642,-25.0,0
1643,-23.0,0
1644,-23.0,0
1645,-24.0,0
1646,-23.0,0
1647,-23.0,0
1648,-22.0,0
1649,-22.0,0
1650,-23.0,0
1651,-23.0,0
1652,-25.0,0
1653,-25.0,0
1654,-24.0,0
1655,-24.0,0
1656,-24.0,0
1657,-25.0,0
1658,-28.0,0
1659,-24.0,0
1660,-25.0,0
1661,-25.0,0
1662,-24.0,0
1663,-32.0,0
1664,-35.0,0
1665,-33.0,0
1666,-31.0,0
1667,-31.0,0
1668,-36.0,0
1669,-38.0,0
1670,-39.0,0
1671,-40.0,0
1672,-36.0,0
1673,-35.0,0
1674,-34.0,0
1675,-30.0,0
1676,-29.0,0
1677,-25.0,0
1678,-22.0,0
1679,-14.0,0
1680,-9.0,0
1681,-4.0,0
1682,-2.0,0
1683,0.0,0
1684,1.0,0
1685,3.0,0
1686,6.0,0
1687,9.0,0
1688,10.0,0
1689,11.0,0
1690,14.0,0
1691,20.0,0
1692,22.0,0
1693,19.0,0
1694,13.0,0
1695,11.0,0
1696,11.0,0
1697,13.0,0
1698,17.0,0
1699,12.0,0
1700,11.0,0
1701,9.0,0
1702,8.0,0
1703,8.0,0
1704,8.0,0
1705,9.0,0
1706,11.0,0
1707,8.0,0
1708,6.0,0
1709,4.0,0
1710,4.0,0
1711,5.0,0
1712,7.0,0
1713,8.0,0
1714,8.0,0
1715,8.0,0
1716,9.0,0
1717,7.0,0
1718,7.0,0
1719,6.0,0
1720,7.0,0
1721,8.0,0
1722,8.0,0
1723,6.0,0
1724,4.0,0
1725,5.0,0
1726,5.0,0
1727,5.0,0
1728,4.0,0
1729,4.0,0
1730,4.0,0
1731,3.0,0
1732,1.0,0
1733,1.0,0
1734,1.0,0
1735,1.0,0
1736,2.0,0
1737,1.0,0
1738,4.0,0
1739,4.0,0
1740,5.0,0
1741,3.0,0
1742,2.0,0
1743,0.0,0
1744,0.0,0
1745,0.0,0
1746,0.0,0
1747,0.0,0
1748,3.0,0
1749,0.0,0
1750,0.0,0
1751,0.0,0
1752,0.0,0
1753,3.0,0
1754,4.0,0
1755,3.0,0
1756,0.0,0
1757,1.0,0
1758,1.0,0
1759,2.0,0
1760,0.0,0
1761,2.0,0
1762,5.0,0
1763,7.0,0
1764,7.0,0
1765,8.0,0
1766,5.0,0
1767,3.0,0
1768,1.0,0
1769,0.0,0
1770,0.0,0
1771,0.0,0
1772,0.0,0
1773,0.0,0
1774,0.0,0
1775,0.0,0
1776,0.0,0
1777,-1.0,0
1778,-1.0,0
1779,7.0,0
1780,17.0,0
1781,14.0,0
1782,17.0,0
1783,30.0,0
1784,32.0,0
1785,31.0,0
1786,36.0,0
1787,63.0,0
1788,92.0,0
1789,123.0,0
1790,153.0,0
1791,163.0,0
1792,173.0,0
1793,111.0,0
1794,31.0,0
1795,0.0,0
1796,-12.0,0
1797,-18.0,0
1798,-22.0,0
1799,-25.0,0
1800,-25.0,0
1801,-21.0,0
1802,-21.0,0
1803,-24.0,0
1804,-28.0,0
1805,-29.0,0
1806,-27.0,0
1807,-23.0,0
1808,-21.0,0
1809,-22.0,0
1810,-22.0,0
1811,-21.0,0
1812,-22.0,0
1813,-24.0,0
1814,-23.0,0
1815,-20.0,0
1816,-20.0,0
1817,-24.0,0
1818,-23.0,0
1819,-21.0,0
1820,-25.0,0
1821,-27.0,0
1822,-24.0,0
1823,-23.0,0
1824,-24.0,0
1825,-23.0,0
1826,-21.0,0
1827,-24.0,0
1828,-32.0,0
1829,-33.0,0
1830,-33.0,0
1831,-38.0,0
1832,-35.0,0
1833,-37.0,0
1834,-39.0,0
1835,-41.0,0
1836,-41.0,0
1837,-39.0,0
1838,-37.0,0
1839,-35.0,0
1840,-28.0,0
1841,-25.0,0
1842,-24.0,0
1843,-24.0,0
1844,-23.0,0
1845,-20.0,0
1846,-11.0,0
1847,-5.0,0
1848,-1.0,0
1849,0.0,0
1850,1.0,0
1851,4.0,0
1852,7.0,0
1853,10.0,0
1854,14.0,0
1855,18.0,0
1856,18.0,0
1857,14.0,0
1858,11.0,0
1859,11.0,0
1860,11.0,0
1861,9.0,0
1862,10.0,0
1863,9.0,0
1864,9.0,0
1865,7.0,0
1866,5.0,0
1867,6.0,0
1868,7.0,0
1869,6.0,0
1870,5.0,0
1871,4.0,0
1872,0.0,0
1873,0.0,0
1874,2.0,0
1875,3.0,0
1876,2.0,0
1877,1.0,0
1878,2.0,0
1879,2.0,0
1880,3.0,0
1881,0.0,0
1882,0.0,0
1883,2.0,0
1884,0.0,0
1885,0.0,0
1886,0.0,0
1887,0.0,0
1888,0.0,0
1889,0.0,0
1890,0.0,0
1891,2.0,0
1892,1.0,0
1893,0.0,0
1894,0.0,0
1895,0.0,0
1896,0.0,0
1897,0.0,0
1898,2.0,0
1899,2.0,0
1900,0.0,0
1901,0.0,0
1902,0.0,0
1903,0.0,0
1904,0.0,0
1905,0.0,0
1906,0.0,0
1907,-2.0,0
1908,-1.0,0
1909,0.0,0
1910,0.0,0
1911,-1.0,0
1912,0.0,0
1913,0.0,0
1914,0.0,0
1915,0.0,0
1916,0.0,0
1917,0.0,0
1918,0.0,0
1919,0.0,0
1920,-2.0,0
1921,-2.0,0
1922,0.0,0
1923,-1.0,0
1924,2.0,0
1925,0.0,0
1926,1.0,0
1927,4.0,0
1928,4.0,0
1929,5.0,0
1930,6.0,0
1931,3.0,0
1932,0.0,0
1933,-2.0,0
1934,-1.0,0
1935,-1.0,0
1936,0.0,0
1937,-1.0,0
1938,-3.0,0
1939,-3.0,0
1940,-3.0,0
1941,-1.0,0
1942,0.0,0
1943,0.0,0
1944,2.0,0
1945,9.0,0
1946,10.0,0
1947,18.0,0
1948,30.0,0
1949,32.0,0
1950,30.0,0
1951,39.0,0
1952,70.0,0
1953,98.0,0
1954,125.0,0
1955,148.0,0
1956,156.0,0
1957,158.0,0
1958,95.0,0
1959,19.0,0
1960,-4.0,0
1961,-16.0,0
1962,-22.0,0
1963,-22.0,0
1964,-23.0,0
1965,-24.0,0
1966,-23.0,0
1967,-28.0,0
1968,-27.0,0
1969,-27.0,0
1970,-26.0,0
1971,-25.0,0
1972,-21.0,0
1973,-22.0,0
1974,-23.0,0
1975,-22.0,0
1976,-23.0,0
1977,-24.0,0
1978,-23.0,0
1979,-24.0,0
1980,-26.0,0
1981,-28.0,0
1982,-26.0,0
1983,-23.0,0
1984,-22.0,0
1985,-22.0,0
1986,-24.0,0
1987,-27.0,0
1988,-26.0,0
1989,-25.0,0
1990,-25.0,0
1991,-24.0,0
1992,-26.0,0
1993,-31.0,0
1994,-34.0,0
1995,-38.0,0
1996,-36.0,0
1997,-35.0,0
1998,-39.0,0
1999,-40.0,0
2000,-35.0,0
2001,-37.0,0
2002,-36.0,0
2003,-32.0,0
2004,-32.0,0
2005,-40.0,0
2006,-29.0,0
2007,-29.0,0
2008,-19.0,0
2009,-20.0,0
2010,-21.0,0
2011,-11.0,0
2012,-8.0,0
2013,-5.0,0
2014,-2.0,0
2015,4.0,0
2016,6.0,0
2017,3.0,0
2018,6.0,0
2019,15.0,0
2020,19.0,0
2021,15.0,0
2022,12.0,0
2023,16.0,0
2024,19.0,0
2025,17.0,0
2026,18.0,0
2027,16.0,0
2028,10.0,0
2029,5.0,0
2030,7.0,0
2031,8.0,0
2032,4.0,0
2033,5.0,0
2034,7.0,0
2035,9.0,0
2036,8.0,0
2037,8.0,0
2038,7.0,0
2039,7.0,0
2040,6.0,0
2041,3.0,0
2042,6.0,0
2043,5.0,0
2044,3.0,0
2045,3.0,0
2046,4.0,0
2047,7.0,0
2048,2.0,0
2049,2.0,0
2050,3.0,0
2051,4.0,0
2052,0.0,0
2053,0.0,0
2054,3.0,0
2055,4.0,0
2056,3.0,0
2057,3.0,0
2058,4.0,0
2059,2.0,0
2060,0.0,0
2061,0.0,0
2062,0.0,0
2063,0.0,0
2064,0.0,0
2065,0.0,0
2066,0.0,0
2067,1.0,0
2068,0.0,0
2069,0.0,0
2070,0.0,0
2071,0.0,0
2072,0.0,0
2073,0.0,0
2074,1.0,0
2075,0.0,0
2076,-2.0,0
2077,0.0,0
2078,0.0,0
2079,2.0,0
2080,0.0,0
2081,0.0,0
2082,0.0,0
2083,-1.0,0
2084,0.0,0
2085,4.0,0
2086,0.0,0
2087,-3.0,0
2088,-2.0,0
2089,0.0,0
2090,2.0,0
2091,1.0,0
2092,1.0,0
2093,1.0,0
2094,0.0,0
2095,0.0,0
2096,3.0,0
2097,7.0,0
2098,3.0,0
2099,-6.0,0
2100,-4.0,0
2101,-2.0,0
2102,0.0,0
2103,0.0,0
2104,0.0,0
2105,-1.0,0
2106,-1.0,0
2107,-1.0,0
2108,0.0,0
2109,0.0,0
2110,0.0,0
2111,4.0,0
2112,10.0,0
2113,10.0,0
2114,15.0,0
2115,26.0,0
2116,30.0,0
2117,29.0,0
2118,35.0,0
2119,54.0,0
2120,85.0,0
2121,118.0,0
2122,142.0,0
2123,156.0,0
2124,158.0,0
2125,121.0,0
2126,40.0,0
2127,-2.0,0
2128,-15.0,0
2129,-22.0,0
2130,-23.0,0
2131,-23.0,0
2132,-26.0,0
2133,-25.0,0
2134,-25.0,0
2135,-23.0,0
2136,-24.0,0
2137,-30.0,0
2138,-29.0,0
2139,-27.0,0
2140,-28.0,0
2141,-26.0,0
2142,-23.0,0
2143,-23.0,0
2144,-19.0,0
2145,-22.0,0
2146,-24.0,0
2147,-26.0,0
2148,-25.0,0
2149,-23.0,0
2150,-26.0,0
2151,-27.0,0
2152,-26.0,0
2153,-25.0,0
2154,-23.0,0
2155,-24.0,0
2156,-26.0,0
2157,-25.0,0
2158,-25.0,0
2159,-27.0,0
2160,-30.0,0
2161,-31.0,0
2162,-29.0,0
2163,-33.0,0
2164,-38.0,0
2165,-37.0,0
2166,-41.0,0
2167,-41.0,0
2168,-39.0,0
2169,-34.0,0
2170,-40.0,0
2171,-35.0,0
2172,-29.0,0
2173,-32.0,0
2174,-30.0,0
2175,-25.0,0
2176,-24.0,0
2177,-21.0,0
2178,-15.0,0
2179,-8.0,0
2180,-4.0,0
2181,-3.0,0
2182,0.0,0
2183,1.0,0
2184,4.0,0
2185,7.0,0
2186,8.0,0
2187,10.0,0
2188,11.0,0
2189,11.0,0
2190,9.0,0
2191,10.0,0
2192,11.0,0
2193,9.0,0
2194,9.0,0
2195,9.0,0
2196,6.0,0
2197,6.0,0
2198,7.0,0
2199,7.0,0
2200,5.0,0
2201,4.0,0
2202,4.0,0
2203,5.0,0
2204,7.0,0
2205,7.0,0
2206,6.0,0
2207,5.0,0
2208,5.0,0
2209,3.0,0
2210,0.0,0
2211,0.0,0
2212,3.0,0
2213,3.0,0
2214,2.0,0
2215,0.0,0
2216,2.0,0
2217,4.0,0
2218,4.0,0
2219,0.0,0
2220,0.0,0
2221,2.0,0
2222,2.0,0
2223,2.0,0
2224,2.0,0
2225,2.0,0
2226,2.0,0
2227,0.0,0
2228,0.0,0
2229,1.0,0
2230,3.0,0
2231,2.0,0
2232,4.0,0
2233,4.0,0
2234,3.0,0
2235,1.0,0
2236,1.0,0
2237,0.0,0
2238,0.0,0
2239,0.0,0
2240,0.0,0
2241,0.0,0
2242,0.0,0
2243,1.0,0
2244,2.0,0
2245,3.0,0
2246,2.0,0
2247,2.0,0
2248,4.0,0
2249,4.0,0
2250,6.0,0
2251,6.0,0
2252,4.0,0
2253,0.0,0
2254,0.0,0
2255,0.0,0
2256,2.0,0
2257,3.0,0
2258,4.0,0
2259,3.0,0
2260,0.0,0
2261,3.0,0
2262,6.0,0
2263,8.0,0
2264,8.0,0
2265,8.0,0
2266,8.0,0
2267,5.0,0
2268,0.0,0
2269,0.0,0
2270,3.0,0
2271,3.0,0
2272,2.0,0
2273,2.0,0
2274,0.0,0
2275,0.0,0
2276,0.0,0
2277,0.0,0
2278,1.0,0
2279,3.0,0
2280,6.0,0
2281,14.0,0
2282,16.0,0
2283,20.0,0
2284,28.0,0
2285,26.0,0
2286,24.0,0
2287,35.0,0
2288,66.0,0
2289,97.0,0
2290,125.0,0
2291,147.0,0
2292,156.0,0
2293,155.0,0
2294,101.0,0
2295,27.0,0
2296,-3.0,0
2297,-16.0,0
2298,-21.0,0
2299,-20.0,0
2300,-20.0,0
2301,-23.0,0
2302,-24.0,0
2303,-21.0,0
2304,-21.0,0
2305,-24.0,0
2306,-26.0,0
2307,-23.0,0
2308,-23.0,0
2309,-22.0,0
2310,-22.0,0
2311,-22.0,0
2312,-21.0,0
2313,-20.0,0
2314,-16.0,0
2315,-18.0,0
2316,-20.0,0
2317,-20.0,0
2318,-20.0,0
2319,-21.0,0
2320,-20.0,0
2321,-21.0,0
2322,-21.0,0
2323,-21.0,0
2324,-22.0,0
2325,-24.0,0
2326,-25.0,0
2327,-24.0,0
2328,-24.0,0
2329,-25.0,0
2330,-24.0,0
2331,-25.0,0
2332,-30.0,0
2333,-33.0,0
2334,-36.0,0
2335,-34.0,0
2336,-34.0,0
2337,-35.0,0
2338,-31.0,0
2339,-29.0,0
2340,-30.0,0
2341,-26.0,0
2342,-23.0,0
2343,-22.0,0
2344,-25.0,0
2345,-15.0,0
2346,-7.0,0
2347,-5.0,0
2348,-1.0,0
2349,0.0,0
2350,1.0,0
2351,5.0,0
2352,6.0,0
2353,9.0,0
2354,19.0,0
2355,22.0,0
2356,21.0,0
2357,23.0,0
2358,24.0,0
2359,21.0,0
2360,21.0,0
2361,22.0,0
2362,20.0,0
2363,14.0,0
2364,11.0,0
2365,10.0,0
2366,9.0,0
2367,8.0,0
2368,8.0,0
2369,8.0,0
2370,7.0,0
2371,6.0,0
2372,5.0,0
2373,6.0,0
2374,7.0,0
2375,5.0,0
2376,4.0,0
2377,5.0,0
2378,8.0,0
2379,7.0,0
2380,6.0,0
2381,2.0,0
2382,1.0,0
2383,0.0,0
2384,2.0,0
2385,4.0,0
2386,4.0,0
2387,3.0,0
2388,2.0,0
2389,4.0,0
2390,4.0,0
2391,1.0,0
2392,1.0,0
2393,4.0,0
2394,4.0,0
2395,2.0,0
2396,2.0,0
2397,1.0,0
2398,1.0,0
2399,0.0,0
2400,2.0,0
2401,1.0,0
2402,0.0,0
2403,2.0,0
2404,1.0,0
2405,0.0,0
2406,0.0,0
2407,1.0,0
2408,2.0,0
2409,3.0,0
2410,3.0,0
2411,1.0,0
2412,0.0,0
2413,0.0,0
2414,0.0,0
2415,0.0,0
2416,0.0,0
2417,1.0,0
2418,0.0,0
2419,0.0,0
2420,0.0,0
2421,2.0,0
2422,2.0,0
2423,2.0,0
2424,3.0,0
2425,4.0,0
2426,2.0,0
2427,-1.0,0
2428,-1.0,0
2429,1.0,0
2430,1.0,0
2431,4.0,0
2432,4.0,0
2433,7.0,0
2434,8.0,0
2435,4.0,0
2436,0.0,0
2437,-1.0,0
2438,-2.0,0
2439,0.0,0
2440,0.0,0
2441,0.0,0
2442,0.0,0
2443,0.0,0
2444,0.0,0
2445,2.0,0
2446,1.0,0
2447,0.0,0
2448,4.0,0
2449,15.0,0
2450,14.0,0
2451,19.0,0
2452,29.0,0
2453,33.0,0
2454,29.0,0
2455,34.0,0
2456,57.0,0
2457,85.0,0
2458,115.0,0
2459,142.0,0
2460,155.0,0
2461,159.0,0
2462,127.0,0
2463,47.0,0
2464,3.0,0
2465,-8.0,0
2466,-16.0,0
2467,-20.0,0
2468,-22.0,0
2469,-24.0,0
2470,-24.0,0
2471,-24.0,0
2472,-24.0,0
2473,-24.0,0
2474,-25.0,0
2475,-25.0,0
2476,-26.0,0
2477,-27.0,0
2478,-26.0,0
2479,-24.0,0
2480,-23.0,0
2481,-23.0,0
2482,-22.0,0
2483,-22.0,0
2484,-23.0,0
2485,-24.0,0
2486,-22.0,0
2487,-22.0,0
2488,-23.0,0
2489,-24.0,0
2490,-25.0,0
2491,-24.0,0
2492,-24.0,0
2493,-23.0,0
2494,-25.0,0
2495,-28.0,0
2496,-30.0,0
2497,-31.0,0
2498,-32.0,0
2499,-32.0,0
2500,-36.0,0
2501,-37.0,0
2502,-36.0,0
2503,-39.0,0
2504,-41.0,0
2505,-41.0,0
2506,-43.0,0
2507,-43.0,0
2508,-40.0,0
2509,-37.0,0
2510,-29.0,0
2511,-30.0,0
2512,-28.0,0
2513,-21.0,0
2514,-19.0,0
2515,-13.0,0
2516,-5.0,0
2517,-4.0,0
2518,0.0,0
2519,0.0,0
2520,2.0,0
2521,5.0,0
2522,8.0,0
2523,11.0,0
2524,16.0,0
2525,18.0,0
2526,17.0,0
2527,9.0,0
2528,7.0,0
2529,8.0,0
2530,8.0,0
2531,8.0,0
2532,9.0,0
2533,7.0,0
2534,6.0,0
2535,6.0,0
2536,5.0,0
2537,5.0,0
2538,3.0,0
2539,3.0,0
2540,4.0,0
2541,3.0,0
2542,2.0,0
2543,2.0,0
2544,4.0,0
2545,4.0,0
2546,2.0,0
2547,0.0,0
2548,0.0,0
2549,2.0,0
2550,1.0,0
2551,3.0,0
2552,3.0,0
2553,2.0,0
2554,2.0,0
2555,1.0,0
2556,0.0,0
2557,0.0,0
2558,1.0,0
2559,2.0,0
2560,4.0,0
2561,1.0,0
2562,0.0,0
2563,0.0,0
2564,0.0,0
2565,0.0,0
2566,0.0,0
2567,0.0,0
2568,0.0,0
2569,0.0,0
2570,0.0,0
2571,1.0,0
2572,2.0,0
2573,0.0,0
2574,-2.0,0
2575,-1.0,0
2576,0.0,0
2577,2.0,0
2578,2.0,0
2579,0.0,0
2580,-2.0,0
2581,-1.0,0
2582,0.0,0
2583,0.0,0
2584,0.0,0
2585,-1.0,0
2586,-1.0,0
2587,0.0,0
2588,0.0,0
2589,0.0,0
2590,0.0,0
2591,0.0,0
2592,0.0,0
2593,0.0,0
2594,3.0,0
2595,6.0,0
2596,8.0,0
2597,6.0,0
2598,0.0,0
2599,-1.0,0
2600,-1.0,0
2601,-2.0,0
2602,-1.0,0
2603,-1.0,0
2604,-1.0,0
2605,-1.0,0
2606,0.0,0
2607,-1.0,0
2608,-2.0,0
2609,0.0,0
2610,-1.0,0
2611,4.0,0
2612,16.0,0
2613,13.0,0
2614,19.0,0
2615,31.0,0
2616,38.0,0
2617,32.0,0
2618,36.0,0
2619,58.0,0
2620,88.0,0
2621,120.0,0
2622,145.0,0
2623,157.0,0
2624,158.0,0
2625,115.0,0
2626,41.0,0
2627,1.0,0
2628,-11.0,0
2629,-18.0,0
2630,-22.0,0
2631,-24.0,0
2632,-25.0,0
2633,-23.0,0
2634,-23.0,0
2635,-24.0,0
2636,-27.0,0
2637,-28.0,0
2638,-26.0,0
2639,-23.0,0
2640,-20.0,0
2641,-26.0,0
2642,-25.0,0
2643,-24.0,0
2644,-24.0,0
2645,-24.0,0
2646,-24.0,0
2647,-24.0,0
2648,-25.0,0
2649,-23.0,0
2650,-22.0,0
2651,-21.0,0
2652,-24.0,0
2653,-24.0,0
2654,-25.0,0
2655,-26.0,0
2656,-25.0,0
2657,-24.0,0
2658,-25.0,0
2659,-28.0,0
2660,-29.0,0
2661,-26.0,0
2662,-29.0,0
2663,-32.0,0
2664,-36.0,0
2665,-40.0,0
2666,-42.0,0
2667,-43.0,0
2668,-44.0,0
2669,-42.0,0
2670,-36.0,0
2671,-30.0,0
2672,-29.0,0
2673,-30.0,0
2674,-27.0,0
2675,-24.0,0
2676,-21.0,0
2677,-14.0,0
2678,-10.0,0
2679,-5.0,0
2680,-2.0,0
2681,1.0,0
2682,4.0,0
2683,4.0,0
2684,4.0,0
2685,7.0,0
2686,12.0,0
2687,20.0,0
2688,19.0,0
2689,20.0,0
2690,17.0,0
2691,14.0,0
2692,9.0,0
2693,10.0,0
2694,7.0,0
2695,9.0,0
2696,10.0,0
2697,10.0,0
2698,9.0,0
2699,9.0,0
2700,7.0,0
2701,7.0,0
2702,5.0,0
2703,3.0,0
2704,3.0,0
2705,5.0,0
2706,4.0,0
2707,3.0,0
2708,1.0,0
2709,0.0,0
2710,1.0,0
2711,2.0,0
2712,4.0,0
2713,4.0,0
2714,4.0,0
2715,2.0,0
2716,0.0,0
2717,0.0,0
2718,0.0,0
2719,1.0,0
2720,0.0,0
2721,2.0,0
2722,1.0,0
2723,0.0,0
2724,0.0,0
2725,0.0,0
2726,-1.0,0
2727,-1.0,0
2728,1.0,0
2729,1.0,0
2730,0.0,0
2731,0.0,0
2732,0.0,0
2733,0.0,0
2734,1.0,0
2735,2.0,0
2736,0.0,0
2737,0.0,0
2738,0.0,0
2739,0.0,0
2740,0.0,0
2741,0.0,0
2742,2.0,0
2743,0.0,0
2744,0.0,0
2745,0.0,0
2746,0.0,0
2747,0.0,0
2748,0.0,0
2749,0.0,0
2750,0.0,0
2751,0.0,0
2752,0.0,0
2753,1.0,0
2754,2.0,0
2755,1.0,0
2756,1.0,0
2757,0.0,0
2758,0.0,0
2759,0.0,0
2760,1.0,0
2761,2.0,0
2762,5.0,0
2763,8.0,0
2764,7.0,0
2765,4.0,0
2766,2.0,0
2767,-1.0,0
2768,-2.0,0
2769,-1.0,0
2770,0.0,0
2771,0.0,0
2772,-1.0,0
2773,0.0,0
2774,0.0,0
2775,-1.0,0
2776,-2.0,0
2777,-4.0,0
2778,-1.0,0
2779,11.0,0
2780,12.0,0
2781,16.0,0
2782,30.0,0
2783,38.0,0
2784,33.0,0
2785,32.0,0
2786,51.0,0
2787,80.0,0
2788,109.0,0
2789,136.0,0
2790,150.0,0
2791,161.0,0
2792,129.0,0
2793,59.0,0
2794,8.0,0
2795,-14.0,0
2796,-23.0,0
2797,-24.0,0
2798,-23.0,0
2799,-24.0,0
2800,-25.0,0
2801,-24.0,0
2802,-25.0,0
2803,-28.0,0
2804,-25.0,0
2805,-26.0,0
2806,-28.0,0
2807,-27.0,0
2808,-27.0,0
2809,-28.0,0
2810,-25.0,0
2811,-23.0,0
2812,-26.0,0
2813,-26.0,0
2814,-28.0,0
2815,-26.0,0
2816,-27.0,0
2817,-28.0,0
2818,-30.0,0
2819,-26.0,0
2820,-26.0,0
2821,-24.0,0
2822,-28.0,0
2823,-30.0,0
2824,-31.0,0
2825,-29.0,0
2826,-31.0,0
2827,-32.0,0
2828,-37.0,0
2829,-40.0,0
2830,-41.0,0
2831,-38.0,0
2832,-42.0,0
2833,-44.0,0
2834,-42.0,0
2835,-38.0,0
2836,-39.0,0
2837,-41.0,0
2838,-39.0,0
2839,-34.0,0
2840,-32.0,0
2841,-33.0,0
2842,-31.0,0
2843,-26.0,0
2844,-21.0,0
2845,-20.0,0
2846,-17.0,0
2847,-7.0,0
2848,-1.0,0
2849,0.0,0
2850,0.0,0
2851,3.0,0
2852,5.0,0
2853,6.0,0
2854,8.0,0
2855,8.0,0
2856,11.0,0
2857,9.0,0
2858,6.0,0
2859,6.0,0
2860,5.0,0
2861,5.0,0
2862,7.0,0
2863,4.0,0
2864,5.0,0
2865,4.0,0
2866,3.0,0
2867,0.0,0
2868,3.0,0
2869,4.0,0
2870,2.0,0
2871,4.0,0
2872,4.0,0
2873,1.0,0
2874,0.0,0
2875,0.0,0
2876,1.0,0
2877,1.0,0
2878,0.0,0
2879,0.0,0
2880,3.0,0
2881,3.0,0
2882,1.0,0
2883,0.0,0
2884,1.0,0
2885,0.0,0
2886,0.0,0
2887,0.0,0
2888,0.0,0
2889,0.0,0
2890,1.0,0
2891,1.0,0
2892,2.0,0
2893,3.0,0
2894,2.0,0
2895,-1.0,0
2896,1.0,0
2897,0.0,0
2898,3.0,0
2899,2.0,0
2900,-1.0,0
2901,0.0,0
2902,0.0,0
2903,0.0,0
2904,3.0,0
2905,3.0,0
2906,1.0,0
2907,1.0,0
2908,1.0,0
2909,0.0,0
2910,3.0,0
2911,3.0,0
2912,0.0,0
2913,0.0,0
2914,0.0,0
2915,0.0,0
2916,1.0,0
2917,1.0,0
2918,0.0,0
2919,0.0,0
2920,1.0,0
2921,2.0,0
2922,4.0,0
2923,4.0,0
2924,4.0,0
2925,3.0,0
2926,2.0,0
2927,1.0,0
2928,2.0,0
2929,3.0,0
2930,7.0,0
2931,8.0,0
2932,7.0,0
2933,3.0,0
2934,0.0,0
2935,1.0,0
2936,0.0,0
2937,1.0,0
2938,0.0,0
2939,3.0,0
2940,2.0,0
2941,0.0,0
2942,2.0,0
2943,1.0,0
2944,0.0,0
2945,1.0,0
2946,14.0,0
2947,20.0,0
2948,14.0,0
2949,22.0,0
2950,33.0,0
2951,37.0,0
2952,27.0,0
2953,39.0,0
2954,69.0,0
2955,98.0,0
2956,129.0,0
2957,149.0,0
2958,161.0,0
2959,151.0,0
2960,92.0,0
2961,28.0,0
2962,-6.0,0
2963,-17.0,0
2964,-22.0,0
2965,-25.0,0
2966,-23.0,0
2967,-21.0,0
2968,-22.0,0
2969,-22.0,0
2970,-24.0,0
2971,-25.0,0
2972,-23.0,0
2973,-22.0,0
2974,-22.0,0
2975,-19.0,0
2976,-23.0,0
2977,-26.0,0
2978,-22.0,0
2979,-20.0,0
2980,-20.0,0
2981,-17.0,0
2982,-23.0,0
2983,-22.0,0
2984,-23.0,0
2985,-22.0,0
2986,-21.0,0
2987,-18.0,0
2988,-21.0,0
2989,-24.0,0
2990,-21.0,0
2991,-22.0,0
2992,-23.0,0
2993,-24.0,0
2994,-25.0,0
2995,-24.0,0
2996,-24.0,0
2997,-28.0,0
2998,-30.0,0
2999,-31.0,0
3000,-29.0,0
3001,-30.0,0
3002,-32.0,0
3003,-30.0,0
3004,-30.0,0
3005,-32.0,0
3006,-29.0,0
3007,-25.0,0
3008,-24.0,0
3009,-23.0,0
3010,-21.0,0
3011,-14.0,0
3012,-8.0,0
3013,-9.0,0
3014,-6.0,0
3015,-1.0,0
3016,1.0,0
3017,4.0,0
3018,8.0,0
3019,9.0,0
3020,12.0,0
3021,15.0,0
3022,21.0,0
3023,21.0,0
3024,21.0,0
3025,21.0,0
3026,22.0,0
3027,22.0,0
3028,21.0,0
3029,20.0,0
3030,14.0,0
3031,12.0,0
3032,9.0,0
3033,8.0,0
3034,8.0,0
3035,9.0,0
3036,11.0,0
3037,12.0,0
3038,9.0,0
3039,12.0,0
3040,8.0,0
3041,5.0,0
3042,4.0,0
3043,4.0,0
3044,5.0,0
3045,4.0,0
3046,2.0,0
3047,2.0,0
3048,4.0,0
3049,3.0,0
3050,1.0,0
3051,2.0,0
3052,4.0,0
3053,4.0,0
3054,3.0,0
3055,1.0,0
3056,0.0,0
3057,1.0,0
3058,2.0,0
3059,0.0,0
3060,3.0,0
3061,3.0,0
3062,1.0,0
3063,1.0,0
3064,1.0,0
3065,2.0,0
3066,1.0,0
3067,0.0,0
3068,0.0,0
3069,0.0,0
3070,0.0,0
3071,0.0,0
3072,0.0,0
3073,0.0,0
3074,0.0,0
3075,1.0,0
3076,1.0,0
3077,1.0,0
3078,0.0,0
3079,-2.0,0
3080,0.0,0
3081,0.0,0
3082,2.0,0
3083,0.0,0
3084,-3.0,0
3085,-1.0,0
3086,0.0,0
3087,0.0,0
3088,-1.0,0
3089,0.0,0
3090,1.0,0
3091,0.0,0
3092,-1.0,0
3093,0.0,0
3094,0.0,0
3095,1.0,0
3096,7.0,0
3097,11.0,0
3098,7.0,0
3099,2.0,0
3100,0.0,0
3101,-3.0,0
3102,-2.0,0
3103,-2.0,0
3104,-2.0,0
3105,0.0,0
3106,-3.0,0
3107,-3.0,0
3108,-2.0,0
3109,0.0,0
3110,0.0,0
3111,0.0,0
3112,-2.0,0
3113,2.0,0
3114,12.0,0
3115,16.0,0
3116,20.0,0
3117,28.0,0
3118,33.0,0
3119,28.0,0
3120,43.0,0
3121,69.0,0
3122,97.0,0
3123,129.0,0
3124,149.0,0
3125,157.0,0
3126,149.0,0
3127,83.0,0
3128,18.0,0
3129,-6.0,0
3130,-17.0,0
3131,-21.0,0
3132,-22.0,0
3133,-25.0,0
3134,-26.0,0
3135,-26.0,0
3136,-26.0,0
3137,-26.0,0
3138,-27.0,0
3139,-27.0,0
3140,-26.0,0
3141,-26.0,0
3142,-21.0,0
3143,-21.0,0
3144,-24.0,0
3145,-27.0,0
3146,-27.0,0
3147,-25.0,0
3148,-24.0,0
3149,-24.0,0
3150,-24.0,0
3151,-25.0,0
3152,-23.0,0
3153,-23.0,0
3154,-22.0,0
3155,-24.0,0
3156,-22.0,0
3157,-23.0,0
3158,-23.0,0
3159,-26.0,0
3160,-30.0,0
3161,-29.0,0
3162,-29.0,0
3163,-29.0,0
3164,-34.0,0
3165,-36.0,0
3166,-35.0,0
3167,-38.0,0
3168,-38.0,0
3169,-34.0,0
3170,-34.0,0
3171,-35.0,0
3172,-36.0,0
3173,-30.0,0
3174,-28.0,0
3175,-27.0,0
3176,-24.0,0
3177,-22.0,0
3178,-17.0,0
3179,-13.0,0
3180,-10.0,0
3181,-5.0,0
3182,-2.0,0
3183,-1.0,0
3184,0.0,0
3185,4.0,0
3186,8.0,0
3187,10.0,0
3188,12.0,0
3189,13.0,0
3190,11.0,0
3191,12.0,0
3192,15.0,0
3193,20.0,0
3194,17.0,0
3195,9.0,0
3196,8.0,0
3197,8.0,0
3198,10.0,0
3199,9.0,0
3200,9.0,0
3201,10.0,0
3202,10.0,0
3203,10.0,0
3204,8.0,0
3205,6.0,0
3206,10.0,0
3207,10.0,0
3208,9.0,0
3209,8.0,0
3210,7.0,0
3211,6.0,0
3212,6.0,0
3213,2.0,0
3214,1.0,0
3215,2.0,0
3216,3.0,0
3217,3.0,0
3218,1.0,0
3219,0.0,0
3220,0.0,0
3221,0.0,0
3222,1.0,0
3223,1.0,0
3224,2.0,0
3225,1.0,0
3226,1.0,0
3227,1.0,0
3228,0.0,0
3229,0.0,0
3230,0.0,0
3231,1.0,0
3232,2.0,0
3233,1.0,0
3234,0.0,0
3235,0.0,0
3236,0.0,0
3237,1.0,0
3238,3.0,0
3239,1.0,0
3240,0.0,0
3241,2.0,0
3242,0.0,0
3243,-1.0,0
3244,0.0,0
3245,0.0,0
3246,0.0,0
3247,0.0,0
3248,0.0,0
3249,0.0,0
3250,0.0,0
3251,1.0,0
3252,0.0,0
3253,0.0,0
3254,1.0,0
3255,1.0,0
3256,0.0,0
3257,0.0,0
3258,0.0,0
3259,0.0,0
3260,0.0,0
3261,0.0,0
3262,1.0,0
3263,3.0,0
3264,5.0,0
3265,8.0,0
3266,10.0,0
3267,6.0,0
3268,0.0,0
3269,0.0,0
3270,-1.0,0
3271,-2.0,0
3272,-1.0,0
3273,-3.0,0
3274,-3.0,0
3275,-3.0,0
3276,-4.0,0
3277,-3.0,0
3278,-3.0,0
3279,-2.0,0
3280,0.0,0
3281,9.0,0
3282,19.0,0
3283,17.0,0
3284,27.0,0
3285,33.0,0
3286,34.0,0
3287,25.0,0
3288,43.0,0
3289,67.0,0
3290,98.0,0
3291,132.0,0
3292,150.0,0
3293,158.0,0
3294,158.0,0
3295,83.0,0
3296,18.0,0
3297,-3.0,0
3298,-15.0,0
3299,-22.0,0
3300,-24.0,0
3301,-24.0,0
3302,-24.0,0
3303,-24.0,0
3304,-25.0,0
3305,-24.0,0
3306,-24.0,0
3307,-24.0,0
3308,-24.0,0
3309,-24.0,0
3310,-22.0,0
3311,-22.0,0
3312,-23.0,0
3313,-21.0,0
3314,-20.0,0
3315,-20.0,0
3316,-24.0,0
3317,-22.0,0
3318,-20.0,0
3319,-23.0,0
3320,-23.0,0
3321,-23.0,0
3322,-22.0,0
3323,-22.0,0
3324,-23.0,0
3325,-22.0,0
3326,-23.0,0
3327,-23.0,0
3328,-27.0,0
3329,-27.0,0
3330,-27.0,0
3331,-26.0,0
3332,-31.0,0
3333,-34.0,0
3334,-38.0,0
3335,-38.0,0
3336,-33.0,0
3337,-37.0,0
3338,-39.0,0
3339,-36.0,0
3340,-33.0,0
3341,-31.0,0
3342,-29.0,0
3343,-26.0,0
3344,-21.0,0
3345,-16.0,0
3346,-12.0,0
3347,-9.0,0
3348,-4.0,0
3349,-1.0,0
3350,0.0,0
3351,0.0,0
3352,4.0,0
3353,7.0,0
3354,8.0,0
3355,9.0,0
3356,14.0,0
3357,19.0,0
3358,20.0,0
3359,21.0,0
3360,19.0,0
3361,21.0,0
3362,20.0,0
3363,15.0,0
3364,10.0,0
3365,10.0,0
3366,10.0,0
3367,6.0,0
3368,5.0,0
3369,7.0,0
3370,5.0,0
3371,5.0,0
3372,3.0,0
3373,2.0,0
3374,4.0,0
3375,7.0,0
3376,4.0,0
3377,1.0,0
3378,3.0,0
3379,5.0,0
3380,6.0,0
3381,4.0,0
3382,4.0,0
3383,5.0,0
3384,2.0,0
3385,1.0,0
3386,0.0,0
3387,0.0,0
3388,0.0,0
3389,0.0,0
3390,1.0,0
3391,1.0,0
3392,3.0,0
3393,3.0,0
3394,1.0,0
3395,2.0,0
3396,3.0,0
3397,3.0,0
3398,2.0,0
3399,0.0,0
3400,0.0,0
3401,0.0,0
3402,0.0,0
3403,2.0,0
3404,1.0,0
3405,-1.0,0
3406,0.0,0
3407,1.0,0
3408,1.0,0
3409,1.0,0
3410,2.0,0
3411,0.0,0
3412,0.0,0
3413,1.0,0
3414,0.0,0
3415,0.0,0
3416,0.0,0
3417,0.0,0
3418,1.0,0
3419,0.0,0
3420,-2.0,0
3421,0.0,0
3422,2.0,0
3423,2.0,0
3424,0.0,0
3425,0.0,0
3426,0.0,0
3427,0.0,0
3428,-1.0,0
3429,-1.0,0
3430,0.0,0
3431,2.0,0
3432,6.0,0
3433,6.0,0
3434,5.0,0
3435,4.0,0
3436,2.0,0
3437,0.0,0
3438,0.0,0
3439,-1.0,0
3440,0.0,0
3441,0.0,0
3442,-1.0,0
3443,-4.0,0
3444,-2.0,0
3445,-3.0,0
3446,-3.0,0
3447,-4.0,0
3448,-2.0,0
3449,2.0,0
3450,12.0,0
3451,16.0,0
3452,13.0,0
3453,26.0,0
3454,29.0,0
3455,27.0,0
3456,27.0,0
3457,50.0,0
3458,76.0,0
3459,113.0,0
3460,140.0,0
3461,150.0,0
3462,164.0,0
3463,119.0,0
3464,44.0,0
3465,2.0,0
3466,-13.0,0
3467,-22.0,0
3468,-25.0,0
3469,-23.0,0
3470,-21.0,0
3471,-24.0,0
3472,-28.0,0
3473,-26.0,0
3474,-25.0,0
3475,-25.0,0
3476,-25.0,0
3477,-25.0,0
3478,-26.0,0
3479,-25.0,0
3480,-23.0,0
3481,-24.0,0
3482,-26.0,0
3483,-25.0,0
3484,-24.0,0
3485,-25.0,0
3486,-26.0,0
3487,-24.0,0
3488,-24.0,0
3489,-24.0,0
3490,-24.0,0
3491,-25.0,0
3492,-23.0,0
3493,-24.0,0
3494,-24.0,0
3495,-24.0,0
3496,-31.0,0
3497,-31.0,0
3498,-32.0,0
3499,-32.0,0
3500,-32.0,0
3501,-38.0,0
3502,-39.0,0
3503,-37.0,0
3504,-41.0,0
3505,-38.0,0
3506,-37.0,0
3507,-37.0,0
3508,-38.0,0
3509,-34.0,0
3510,-35.0,0
3511,-33.0,0
3512,-29.0,0
3513,-27.0,0
3514,-24.0,0
3515,-17.0,0
3516,-9.0,0
3517,-7.0,0
3518,-4.0,0
3519,0.0,0
3520,0.0,0
3521,1.0,0
3522,4.0,0
3523,7.0,0
3524,8.0,0
3525,8.0,0
3526,9.0,0
3527,9.0,0
3528,9.0,0
3529,9.0,0
3530,7.0,0
3531,5.0,0
3532,6.0,0
3533,10.0,0
3534,9.0,0
3535,7.0,0
3536,6.0,0
3537,4.0,0
3538,4.0,0
3539,4.0,0
3540,5.0,0
3541,5.0,0
3542,5.0,0
3543,6.0,0
3544,5.0,0
3545,5.0,0
3546,6.0,0
3547,3.0,0
3548,3.0,0
3549,3.0,0
3550,3.0,0
3551,3.0,0
3552,4.0,0
3553,2.0,0
3554,1.0,0
3555,0.0,0
3556,0.0,0
3557,0.0,0
3558,1.0,0
3559,2.0,0
3560,4.0,0
3561,2.0,0
3562,1.0,0
3563,0.0,0
3564,0.0,0
3565,0.0,0
3566,0.0,0
3567,1.0,0
3568,1.0,0
3569,0.0,0
3570,0.0,0
3571,1.0,0
3572,1.0,0
3573,0.0,0
3574,0.0,0
3575,0.0,0
3576,0.0,0
3577,-1.0,0
3578,0.0,0
3579,0.0,0
3580,-1.0,0
3581,0.0,0
3582,2.0,0
3583,0.0,0
3584,0.0,0
3585,1.0,0
3586,0.0,0
3587,0.0,0
3588,-2.0,0
3589,-1.0,0
3590,-1.0,0
3591,0.0,0
3592,0.0,0
3593,0.0,0
3594,0.0,0
3595,1.0,0
3596,2.0,0
3597,0.0,0
3598,0.0,0
3599,1.0,0
3600,1.0,0
3601,2.0,0
3602,4.0,0
3603,4.0,0
3604,6.0,0
3605,5.0,0
3606,1.0,0
3607,0.0,0
3608,0.0,0
3609,0.0,0
3610,0.0,0
3611,0.0,0
3612,0.0,0
3613,0.0,0
3614,1.0,0
3615,4.0,0
3616,4.0,0
3617,-2.0,0
3618,0.0,0
3619,8.0,0
3620,21.0,0
3621,22.0,0
3622,25.0,0
3623,28.0,0
3624,27.0,0
3625,25.0,0
3626,48.0,0
3627,77.0,0
3628,106.0,0
3629,139.0,0
3630,158.0,0
3631,163.0,0
3632,144.0,0
3633,67.0,0
3634,11.0,0
3635,-7.0,0
3636,-18.0,0
3637,-21.0,0
3638,-24.0,0
3639,-26.0,0
3640,-25.0,0
3641,-23.0,0
3642,-23.0,0
3643,-22.0,0
3644,-20.0,0
3645,-21.0,0
3646,-23.0,0
3647,-23.0,0
3648,-22.0,0
3649,-22.0,0
3650,-24.0,0
3651,-24.0,0
3652,-23.0,0
3653,-24.0,0
3654,-23.0,0
3655,-23.0,0
3656,-23.0,0
3657,-22.0,0
3658,-21.0,0
3659,-21.0,0
3660,-21.0,0
3661,-20.0,0
3662,-23.0,0
3663,-22.0,0
3664,-19.0,0
3665,-26.0,0
3666,-29.0,0
3667,-29.0,0
3668,-29.0,0
3669,-31.0,0
3670,-32.0,0
3671,-33.0,0
3672,-29.0,0
3673,-30.0,0
3674,-31.0,0
3675,-31.0,0
3676,-29.0,0
3677,-32.0,0
3678,-33.0,0
3679,-29.0,0
3680,-27.0,0
3681,-25.0,0
3682,-18.0,0
3683,-13.0,0
3684,-12.0,0
3685,-10.0,0
3686,-8.0,0
3687,-4.0,0
3688,0.0,0
3689,2.0,0
3690,5.0,0
3691,7.0,0
3692,9.0,0
3693,12.0,0
3694,15.0,0
3695,18.0,0
3696,17.0,0
3697,14.0,0
3698,19.0,0
3699,18.0,0
3700,15.0,0
3701,20.0,0
3702,17.0,0
3703,12.0,0
3704,17.0,0
3705,12.0,0
3706,13.0,0
3707,14.0,0
3708,16.0,0
3709,8.0,0
3710,6.0,0
3711,7.0,0
3712,6.0,0
3713,3.0,0
3714,3.0,0
3715,5.0,0
3716,6.0,0
3717,4.0,0
3718,3.0,0
3719,2.0,0
3720,2.0,0
3721,3.0,0
3722,4.0,0
3723,3.0,0
3724,3.0,0
3725,4.0,0
3726,1.0,0
3727,0.0,0
3728,1.0,0
3729,2.0,0
3730,1.0,0
3731,2.0,0
3732,2.0,0
3733,2.0,0
3734,3.0,0
3735,3.0,0
3736,3.0,0
3737,2.0,0
3738,2.0,0
3739,2.0,0
3740,1.0,0
3741,0.0,0
3742,0.0,0
3743,2.0,0
3744,2.0,0
3745,0.0,0
3746,0.0,0
3747,3.0,0
3748,0.0,0
3749,0.0,0
3750,0.0,0
3751,0.0,0
3752,2.0,0
3753,2.0,0
3754,1.0,0
3755,1.0,0
3756,3.0,0
3757,2.0,0
3758,0.0,0
3759,2.0,0
3760,1.0,0
3761,2.0,0
3762,3.0,0
3763,1.0,0
3764,0.0,0
3765,0.0,0
3766,3.0,0
3767,1.0,0
3768,2.0,0
3769,5.0,0
3770,7.0,0
3771,8.0,0
3772,9.0,0
3773,6.0,0
3774,1.0,0
3775,0.0,0
3776,0.0,0
3777,0.0,0
3778,0.0,0
3779,1.0,0
3780,0.0,0
3781,-1.0,0
3782,0.0,0
3783,1.0,0
3784,1.0,0
3785,0.0,0
3786,2.0,0
3787,13.0,0
3788,21.0,0
3789,25.0,0
3790,35.0,0
3791,42.0,0
3792,32.0,0
3793,35.0,0
3794,65.0,0
3795,94.0,0
3796,117.0,0
3797,148.0,0
3798,160.0,0
3799,176.0,0
3800,125.0,0
3801,42.0,0
3802,2.0,0
3803,-9.0,0
3804,-18.0,0
3805,-21.0,0
3806,-20.0,0
3807,-22.0,0
3808,-23.0,0
3809,-24.0,0
3810,-21.0,0
3811,-18.0,0
3812,-20.0,0
3813,-22.0,0
3814,-23.0,0
3815,-24.0,0
3816,-24.0,0
3817,-23.0,0
3818,-21.0,0
3819,-20.0,0
3820,-21.0,0
3821,-24.0,0
3822,-23.0,0
3823,-22.0,0
3824,-21.0,0
3825,-21.0,0
3826,-22.0,0
3827,-20.0,0
3828,-20.0,0
3829,-22.0,0
3830,-22.0,0
3831,-22.0,0
3832,-24.0,0
3833,-25.0,0
3834,-25.0,0
3835,-25.0,0
3836,-29.0,0
3837,-32.0,0
3838,-32.0,0
3839,-31.0,0
3840,-31.0,0
3841,-36.0,0
3842,-40.0,0
3843,-41.0,0
3844,-41.0,0
3845,-39.0,0
3846,-37.0,0
3847,-38.0,0
3848,-35.0,0
3849,-31.0,0
3850,-27.0,0
3851,-21.0,0
3852,-13.0,0
3853,-8.0,0
3854,-4.0,0
3855,-1.0,0
3856,0.0,0
3857,2.0,0
3858,5.0,0
3859,8.0,0
3860,10.0,0
3861,8.0,0
3862,8.0,0
3863,10.0,0
3864,12.0,0
3865,12.0,0
3866,7.0,0
3867,5.0,0
3868,7.0,0
3869,8.0,0
3870,5.0,0
3871,5.0,0
3872,10.0,0
3873,8.0,0
3874,5.0,0
3875,4.0,0
3876,4.0,0
3877,4.0,0
3878,4.0,0
3879,4.0,0
3880,4.0,0
3881,5.0,0
3882,4.0,0
3883,4.0,0
3884,4.0,0
3885,5.0,0
3886,2.0,0
3887,2.0,0
3888,5.0,0
3889,3.0,0
3890,3.0,0
3891,1.0,0
3892,0.0,0
3893,2.0,0
3894,3.0,0
3895,3.0,0
3896,4.0,0
3897,3.0,0
3898,3.0,0
3899,1.0,0
3900,0.0,0
3901,0.0,0
3902,2.0,0
3903,1.0,0
3904,2.0,0
3905,4.0,0
3906,2.0,0
3907,0.0,0
3908,0.0,0
3909,0.0,0
3910,1.0,0
3911,3.0,0
3912,1.0,0
3913,0.0,0
3914,0.0,0
3915,0.0,0
3916,1.0,0
3917,2.0,0
3918,1.0,0
3919,2.0,0
3920,0.0,0
3921,0.0,0
3922,0.0,0
3923,0.0,0
3924,0.0,0
3925,0.0,0
3926,0.0,0
3927,0.0,0
3928,0.0,0
3929,0.0,0
3930,0.0,0
3931,1.0,0
3932,0.0,0
3933,0.0,0
3934,0.0,0
3935,1.0,0
3936,0.0,0
3937,2.0,0
3938,5.0,0
3939,7.0,0
3940,9.0,0
3941,7.0,0
3942,3.0,0
3943,2.0,0
3944,0.0,0
3945,0.0,0
3946,0.0,0
3947,0.0,0
3948,0.0,0
3949,0.0,0
3950,-1.0,0
3951,-1.0,0
3952,1.0,0
3953,0.0,0
3954,0.0,0
3955,5.0,0
3956,14.0,0
3957,18.0,0
3958,27.0,0
3959,39.0,0
3960,40.0,0
3961,31.0,0
3962,45.0,0
3963,73.0,0
3964,103.0,0
3965,137.0,0
3966,156.0,0
3967,161.0,0
3968,167.0,0
3969,82.0,0
3970,14.0,0
3971,-2.0,0
3972,-12.0,0
3973,-20.0,0
3974,-22.0,0
3975,-23.0,0
3976,-24.0,0
3977,-24.0,0
3978,-21.0,0
3979,-20.0,0
3980,-22.0,0
3981,-24.0,0
3982,-25.0,0
3983,-24.0,0
3984,-22.0,0
3985,-20.0,0
3986,-21.0,0
3987,-22.0,0
3988,-22.0,0
3989,-22.0,0
3990,-22.0,0
3991,-22.0,0
3992,-24.0,0
3993,-23.0,0
3994,-22.0,0
3995,-21.0,0
3996,-22.0,0
3997,-23.0,0
3998,-20.0,0
3999,-20.0,0
4000,-22.0,0
4001,-24.0,0
4002,-25.0,0
4003,-29.0,0
4004,-30.0,0
4005,-27.0,0
4006,-32.0,0
4007,-35.0,0
4008,-37.0,0
4009,-39.0,0
4010,-41.0,0
4011,-41.0,0
4012,-41.0,0
4013,-41.0,0
4014,-41.0,0
4015,-35.0,0
4016,-33.0,0
4017,-32.0,0
4018,-27.0,0
4019,-23.0,0
4020,-21.0,0
4021,-20.0,0
4022,-17.0,0
4023,-8.0,0
4024,-1.0,0
4025,0.0,0
4026,3.0,0
4027,5.0,0
4028,6.0,0
4029,9.0,0
4030,10.0,0
4031,11.0,0
4032,12.0,0
4033,12.0,0
4034,13.0,0
4035,10.0,0
4036,9.0,0
4037,9.0,0
4038,9.0,0
4039,9.0,0
4040,9.0,0
4041,9.0,0
4042,6.0,0
4043,6.0,0
4044,8.0,0
4045,7.0,0
4046,5.0,0
4047,5.0,0
4048,5.0,0
4049,8.0,0
4050,7.0,0
4051,3.0,0
4052,6.0,0
4053,7.0,0
4054,5.0,0
4055,3.0,0
4056,4.0,0
4057,3.0,0
4058,3.0,0
4059,2.0,0
4060,3.0,0
4061,2.0,0
4062,3.0,0
4063,4.0,0
4064,4.0,0
4065,3.0,0
4066,3.0,0
4067,3.0,0
4068,3.0,0
4069,3.0,0
4070,2.0,0
4071,2.0,0
4072,3.0,0
4073,2.0,0
4074,0.0,0
4075,0.0,0
4076,1.0,0
4077,3.0,0
4078,2.0,0
4079,1.0,0
4080,1.0,0
4081,1.0,0
4082,2.0,0
4083,0.0,0
4084,0.0,0
4085,0.0,0
4086,0.0,0
4087,0.0,0
4088,0.0,0
4089,0.0,0
4090,-2.0,0
4091,-1.0,0
4092,0.0,0
4093,0.0,0
4094,0.0,0
4095,0.0,0
4096,-1.0,0
4097,-2.0,0
4098,0.0,0
4099,0.0,0
4100,-1.0,0
4101,-3.0,0
4102,-3.0,0
4103,-2.0,0
4104,-2.0,0
4105,0.0,0
4106,0.0,0
4107,1.0,0
4108,2.0,0
4109,3.0,0
4110,3.0,0
4111,0.0,0
4112,-3.0,0
4113,-3.0,0
4114,-3.0,0
4115,-4.0,0
4116,-4.0,0
4117,-3.0,0
4118,-3.0,0
4119,-3.0,0
4120,-3.0,0
4121,-4.0,0
4122,-3.0,0
4123,-1.0,0
4124,3.0,0
4125,11.0,0
4126,11.0,0
4127,17.0,0
4128,28.0,0
4129,26.0,0
4130,24.0,0
4131,37.0,0
4132,63.0,0
4133,93.0,0
4134,123.0,0
4135,147.0,0
4136,152.0,0
4137,159.0,0
4138,84.0,0
4139,14.0,0
4140,-10.0,0
4141,-21.0,0
4142,-22.0,0
4143,-23.0,0
4144,-28.0,0
4145,-29.0,0
4146,-29.0,0
4147,-29.0,0
4148,-30.0,0
4149,-29.0,0
4150,-26.0,0
4151,-25.0,0
4152,-27.0,0
4153,-27.0,0
4154,-25.0,0
4155,-24.0,0
4156,-25.0,0
4157,-25.0,0
4158,-23.0,0
4159,-25.0,0
4160,-28.0,0
4161,-26.0,0
4162,-24.0,0
4163,-24.0,0
4164,-24.0,0
4165,-26.0,0
4166,-25.0,0
4167,-24.0,0
4168,-25.0,0
4169,-29.0,0
4170,-29.0,0
4171,-29.0,0
4172,-29.0,0
4173,-32.0,0
4174,-35.0,0
4175,-35.0,0
4176,-37.0,0
4177,-43.0,0
4178,-42.0,0
4179,-42.0,0
4180,-44.0,0
4181,-44.0,0
4182,-44.0,0
4183,-42.0,0
4184,-39.0,0
4185,-39.0,0
4186,-32.0,0
4187,-27.0,0
4188,-25.0,0
4189,-24.0,0
4190,-15.0,0
4191,-9.0,0
4192,-9.0,0
4193,-7.0,0
4194,-3.0,0
4195,-2.0,0
4196,1.0,0
4197,5.0,0
4198,7.0,0
4199,5.0,0
4200,7.0,0
4201,10.0,0
4202,12.0,0
4203,10.0,0
4204,8.0,0
4205,8.0,0
4206,8.0,0
4207,8.0,0
4208,8.0,0
4209,7.0,0
4210,5.0,0
4211,3.0,0
4212,5.0,0
4213,7.0,0
4214,6.0,0
4215,4.0,0
4216,5.0,0
4217,4.0,0
4218,3.0,0
4219,2.0,0
4220,5.0,0
4221,3.0,0
4222,3.0,0
4223,4.0,0
4224,4.0,0
4225,4.0,0
4226,4.0,0
4227,0.0,0
4228,2.0,0
4229,3.0,0
4230,3.0,0
4231,0.0,0
4232,0.0,0
4233,4.0,0
4234,2.0,0
4235,1.0,0
4236,1.0,0
4237,3.0,0
4238,4.0,0
4239,5.0,0
4240,4.0,0
4241,3.0,0
4242,1.0,0
4243,0.0,0
4244,0.0,0
4245,0.0,0
4246,0.0,0
4247,1.0,0
4248,2.0,0
4249,0.0,0
4250,0.0,0
4251,0.0,0
4252,0.0,0
4253,0.0,0
4254,0.0,0
4255,0.0,0
4256,0.0,0
4257,0.0,0
4258,0.0,0
4259,0.0,0
4260,0.0,0
4261,0.0,0
4262,1.0,0
4263,0.0,0
4264,0.0,0
4265,0.0,0
4266,0.0,0
4267,0.0,0
4268,0.0,0
4269,3.0,0
4270,2.0,0
4271,0.0,0
4272,-2.0,0
4273,0.0,0
4274,1.0,0
4275,0.0,0
4276,0.0,0
4277,3.0,0
4278,4.0,0
4279,4.0,0
4280,4.0,0
4281,1.0,0
4282,0.0,0
4283,-1.0,0
4284,-1.0,0
4285,1.0,0
4286,0.0,0
4287,-2.0,0
4288,-3.0,0
4289,-2.0,0
4290,0.0,0
4291,0.0,0
4292,0.0,0
4293,0.0,0
4294,5.0,0
4295,11.0,0
4296,12.0,0
4297,21.0,0
4298,36.0,0
4299,38.0,0
4300,29.0,0
4301,41.0,0
4302,73.0,0
4303,99.0,0
4304,126.0,0
4305,149.0,0
4306,160.0,0
4307,164.0,0
4308,83.0,0
4309,14.0,0
4310,-2.0,0
4311,-12.0,0
4312,-20.0,0
4313,-26.0,0
4314,-28.0,0
4315,-24.0,0
4316,-24.0,0
4317,-25.0,0
4318,-21.0,0
4319,-23.0,0
4320,-24.0,0
4321,-24.0,0
4322,-24.0,0
4323,-22.0,0
4324,-23.0,0
4325,-22.0,0
4326,-21.0,0
4327,-22.0,0
4328,-23.0,0
4329,-22.0,0
4330,-18.0,0
4331,-18.0,0
4332,-22.0,0
4333,-23.0,0
4334,-24.0,0
4335,-26.0,0
4336,-24.0,0
4337,-24.0,0
4338,-24.0,0
4339,-27.0,0
4340,-29.0,0
4341,-30.0,0
4342,-25.0,0
4343,-29.0,0
4344,-32.0,0
4345,-32.0,0
4346,-37.0,0
4347,-41.0,0
4348,-41.0,0
4349,-40.0,0
4350,-33.0,0
4351,-39.0,0
4352,-39.0,0
4353,-40.0,0
4354,-37.0,0
4355,-32.0,0
4356,-25.0,0
4357,-21.0,0
4358,-14.0,0
4359,-19.0,0
4360,-20.0,0
4361,-16.0,0
4362,-5.0,0
4363,0.0,0
4364,0.0,0
4365,0.0,0
4366,2.0,0
4367,5.0,0
4368,9.0,0
4369,10.0,0
4370,12.0,0
4371,16.0,0
4372,15.0,0
4373,10.0,0
4374,9.0,0
4375,9.0,0
4376,10.0,0
4377,11.0,0
4378,11.0,0
4379,9.0,0
4380,7.0,0
4381,7.0,0
4382,8.0,0
4383,5.0,0
4384,4.0,0
4385,7.0,0
4386,6.0,0
4387,6.0,0
4388,9.0,0
4389,9.0,0
4390,4.0,0
4391,4.0,0
4392,5.0,0
4393,7.0,0
4394,4.0,0
4395,4.0,0
4396,4.0,0
4397,5.0,0
4398,4.0,0
4399,4.0,0
4400,2.0,0
4401,6.0,0
4402,3.0,0
4403,3.0,0
4404,4.0,0
4405,1.0,0
4406,0.0,0
4407,0.0,0
4408,0.0,0
4409,0.0,0
4410,0.0,0
4411,0.0,0
4412,0.0,0
4413,0.0,0
4414,0.0,0
4415,1.0,0
4416,1.0,0
4417,0.0,0
4418,0.0,0
4419,0.0,0
4420,2.0,0
4421,3.0,0
4422,0.0,0
4423,-1.0,0
4424,-2.0,0
4425,0.0,0
4426,0.0,0
4427,0.0,0
4428,0.0,0
4429,0.0,0
4430,0.0,0
4431,0.0,0
4432,0.0,0
4433,0.0,0
4434,0.0,0
4435,0.0,0
4436,0.0,0
4437,2.0,0
4438,-1.0,0
4439,0.0,0
4440,1.0,0
4441,1.0,0
4442,5.0,0
4443,6.0,0
4444,0.0,0
4445,0.0,0
4446,0.0,0
4447,-2.0,0
4448,-3.0,0
4449,-2.0,0
4450,-2.0,0
4451,-1.0,0
4452,0.0,0
4453,0.0,0
4454,0.0,0
4455,0.0,0
4456,0.0,0
4457,3.0,0
4458,10.0,0
4459,17.0,0
4460,22.0,0
4461,27.0,0
4462,30.0,0
4463,27.0,0
4464,29.0,0
4465,51.0,0
4466,80.0,0
4467,111.0,0
4468,141.0,0
4469,156.0,0
4470,157.0,0
4471,141.0,0
4472,59.0,0
4473,6.0,0
4474,-10.0,0
4475,-23.0,0
4476,-25.0,0
4477,-29.0,0
4478,-28.0,0
4479,-22.0,0
4480,-23.0,0
4481,-24.0,0
4482,-24.0,0
4483,-24.0,0
4484,-24.0,0
4485,-23.0,0
4486,-21.0,0
4487,-27.0,0
4488,-29.0,0
4489,-29.0,0
4490,-25.0,0
4491,-25.0,0
4492,-24.0,0
4493,-23.0,0
4494,-23.0,0
4495,-23.0,0
4496,-24.0,0
4497,-24.0,0
4498,-26.0,0
4499,-25.0,0
4500,-25.0,0
4501,-27.0,0
4502,-26.0,0
4503,-25.0,0
4504,-26.0,0
4505,-29.0,0
4506,-29.0,0
4507,-30.0,0
4508,-33.0,0
4509,-37.0,0
4510,-38.0,0
4511,-40.0,0
4512,-38.0,0
4513,-34.0,0
4514,-31.0,0
4515,-32.0,0
4516,-37.0,0
4517,-36.0,0
4518,-31.0,0
4519,-29.0,0
4520,-28.0,0
4521,-23.0,0
4522,-22.0,0
4523,-16.0,0
4524,-11.0,0
4525,-10.0,0
4526,-8.0,0
4527,0.0,0
4528,3.0,0
4529,4.0,0
4530,8.0,0
4531,12.0,0
4532,11.0,0
4533,17.0,0
4534,13.0,0
4535,13.0,0
4536,16.0,0
4537,17.0,0
4538,13.0,0
4539,12.0,0
4540,15.0,0
4541,13.0,0
4542,9.0,0
4543,7.0,0
4544,7.0,0
4545,8.0,0
4546,10.0,0
4547,9.0,0
4548,8.0,0
4549,8.0,0
4550,8.0,0
4551,8.0,0
4552,7.0,0
4553,4.0,0
4554,4.0,0
4555,5.0,0
4556,6.0,0
4557,7.0,0
4558,3.0,0
4559,5.0,0
4560,4.0,0
4561,4.0,0
4562,5.0,0
4563,4.0,0
4564,4.0,0
4565,6.0,0
4566,3.0,0
4567,0.0,0
4568,0.0,0
4569,0.0,0
4570,0.0,0
4571,0.0,0
4572,2.0,0
4573,0.0,0
4574,0.0,0
4575,0.0,0
4576,0.0,0
4577,0.0,0
4578,2.0,0
4579,0.0,0
4580,0.0,0
4581,0.0,0
4582,0.0,0
4583,0.0,0
4584,0.0,0
4585,0.0,0
4586,0.0,0
4587,1.0,0
4588,0.0,0
4589,0.0,0
4590,0.0,0
4591,0.0,0
4592,0.0,0
4593,0.0,0
4594,0.0,0
4595,0.0,0
4596,0.0,0
4597,0.0,0
4598,0.0,0
4599,0.0,0
4600,0.0,0
4601,0.0,0
4602,0.0,0
4603,0.0,0
4604,1.0,0
4605,0.0,0
4606,0.0,0
4607,0.0,0
4608,3.0,0
4609,4.0,0
4610,4.0,0
4611,2.0,0
4612,0.0,0
4613,-3.0,0
4614,-4.0,0
4615,-3.0,0
4616,0.0,0
4617,0.0,0
4618,0.0,0
4619,-1.0,0
4620,-4.0,0
4621,-3.0,0
4622,0.0,0
4623,0.0,0
4624,2.0,0
4625,9.0,0
4626,14.0,0
4627,15.0,0
4628,23.0,0
4629,30.0,0
4630,28.0,0
4631,31.0,0
4632,50.0,0
4633,77.0,0
4634,106.0,0
4635,135.0,0
4636,153.0,0
4637,158.0,0
4638,130.0,0
4639,50.0,0
4640,1.0,0
4641,-18.0,0
4642,-23.0,0
4643,-25.0,0
4644,-25.0,0
4645,-29.0,0
4646,-28.0,0
4647,-27.0,0
4648,-29.0,0
4649,-32.0,0
4650,-28.0,0
4651,-27.0,0
4652,-28.0,0
4653,-29.0,0
4654,-29.0,0
4655,-26.0,0
4656,-30.0,0
4657,-29.0,0
4658,-27.0,0
4659,-25.0,0
4660,-28.0,0
4661,-29.0,0
4662,-27.0,0
4663,-25.0,0
4664,-26.0,0
4665,-30.0,0
4666,-30.0,0
4667,-29.0,0
4668,-29.0,0
4669,-30.0,0
4670,-28.0,0
4671,-28.0,0
4672,-30.0,0
4673,-30.0,0
4674,-28.0,0
4675,-29.0,0
4676,-34.0,0
4677,-39.0,0
4678,-39.0,0
4679,-38.0,0
4680,-36.0,0
4681,-37.0,0
4682,-44.0,0
4683,-42.0,0
4684,-41.0,0
4685,-40.0,0
4686,-37.0,0
4687,-30.0,0
4688,-25.0,0
4689,-20.0,0
4690,-19.0,0
4691,-12.0,0
4692,-11.0,0
4693,-9.0,0
4694,0.0,0
4695,0.0,0
4696,0.0,0
4697,5.0,0
4698,7.0,0
4699,6.0,0
4700,6.0,0
4701,10.0,0
4702,11.0,0
4703,11.0,0
4704,11.0,0
4705,11.0,0
4706,10.0,0
4707,8.0,0
4708,8.0,0
4709,6.0,0
4710,4.0,0
4711,5.0,0
4712,7.0,0
4713,6.0,0
4714,4.0,0
4715,3.0,0
4716,3.0,0
4717,3.0,0
4718,4.0,0
4719,6.0,0
4720,4.0,0
4721,2.0,0
4722,1.0,0
4723,1.0,0
4724,3.0,0
4725,3.0,0
4726,2.0,0
4727,1.0,0
4728,1.0,0
4729,2.0,0
4730,2.0,0
4731,0.0,0
4732,0.0,0
4733,0.0,0
4734,0.0,0
4735,0.0,0
4736,4.0,0
4737,0.0,0
4738,-1.0,0
4739,0.0,0
4740,0.0,0
4741,1.0,0
4742,1.0,0
4743,0.0,0
4744,0.0,0
4745,-1.0,0
4746,1.0,0
4747,0.0,0
4748,0.0,0
4749,0.0,0
4750,0.0,0
4751,0.0,0
4752,0.0,0
4753,-1.0,0
4754,0.0,0
4755,0.0,0
4756,0.0,0
4757,0.0,0
4758,0.0,0
4759,-1.0,0
4760,-3.0,0
4761,-3.0,0
4762,-3.0,0
4763,-2.0,0
4764,0.0,0
4765,0.0,0
4766,-3.0,0
4767,-2.0,0
4768,0.0,0
4769,-1.0,0
4770,0.0,0
4771,0.0,0
4772,0.0,0
4773,0.0,0
4774,3.0,0
4775,2.0,0
4776,2.0,0
4777,4.0,0
4778,4.0,0
4779,2.0,0
4780,-2.0,0
4781,-4.0,0
4782,-3.0,0
4783,-2.0,0
4784,0.0,0
4785,0.0,0
4786,1.0,0
4787,-3.0,0
4788,-4.0,0
4789,0.0,0
4790,-2.0,0
4791,-1.0,0
4792,10.0,0
4793,16.0,0
4794,18.0,0
4795,24.0,0
4796,30.0,0
4797,28.0,0
4798,29.0,0
4799,45.0,0
4800,72.0,0
4801,102.0,0
4802,129.0,0
4803,146.0,0
4804,158.0,0
4805,143.0,0
4806,76.0,0
4807,14.0,0
4808,-9.0,0
4809,-21.0,0
4810,-25.0,0
4811,-24.0,0
4812,-23.0,0
4813,-24.0,0
4814,-29.0,0
4815,-30.0,0
4816,-29.0,0
4817,-28.0,0
4818,-26.0,0
4819,-26.0,0
4820,-27.0,0
4821,-26.0,0
4822,-22.0,0
4823,-22.0,0
4824,-25.0,0
4825,-26.0,0
4826,-26.0,0
4827,-26.0,0
4828,-26.0,0
4829,-25.0,0
4830,-22.0,0
4831,-23.0,0
4832,-22.0,0
4833,-17.0,0
4834,-18.0,0
4835,-21.0,0
4836,-21.0,0
4837,-21.0,0
4838,-21.0,0
4839,-22.0,0
4840,-27.0,0
4841,-29.0,0
4842,-29.0,0
4843,-31.0,0
4844,-34.0,0
4845,-34.0,0
4846,-31.0,0
4847,-32.0,0
4848,-40.0,0
4849,-40.0,0
4850,-35.0,0
4851,-32.0,0
4852,-35.0,0
4853,-38.0,0
4854,-31.0,0
4855,-26.0,0
4856,-22.0,0
4857,-21.0,0
4858,-17.0,0
4859,-10.0,0
4860,-2.0,0
4861,-2.0,0
4862,-1.0,0
4863,1.0,0
4864,4.0,0
4865,5.0,0
4866,8.0,0
4867,8.0,0
4868,7.0,0
4869,15.0,0
4870,14.0,0
4871,11.0,0
4872,13.0,0
4873,11.0,0
4874,13.0,0
4875,11.0,0
4876,10.0,0
4877,7.0,0
4878,7.0,0
4879,6.0,0
4880,8.0,0
4881,8.0,0
4882,8.0,0
4883,7.0,0
4884,6.0,0
4885,7.0,0
4886,7.0,0
4887,5.0,0
4888,6.0,0
4889,9.0,0
4890,7.0,0
4891,5.0,0
4892,5.0,0
4893,6.0,0
4894,5.0,0
4895,4.0,0
4896,4.0,0
4897,4.0,0
4898,6.0,0
4899,6.0,0
4900,7.0,0
4901,5.0,0
4902,6.0,0
4903,5.0,0
4904,3.0,0
4905,6.0,0
4906,5.0,0
4907,4.0,0
4908,2.0,0
4909,6.0,0
4910,7.0,0
4911,8.0,0
4912,7.0,0
4913,7.0,0
4914,6.0,0
4915,4.0,0
4916,7.0,0
4917,6.0,0
4918,5.0,0
4919,6.0,0
4920,4.0,0
4921,4.0,0
4922,6.0,0
4923,6.0,0
4924,6.0,0
4925,6.0,0
4926,6.0,0
4927,8.0,0
4928,10.0,0
4929,8.0,0
4930,4.0,0
4931,4.0,0
4932,6.0,0
4933,6.0,0
4934,5.0,0
4935,5.0,0
4936,5.0,0
4937,7.0,0
4938,5.0,0
4939,7.0,0
4940,10.0,0
4941,7.0,0
4942,7.0,0
4943,7.0,0
4944,9.0,0
4945,15.0,0
4946,18.0,0
4947,1.0,0
4948,3.0,0
4949,4.0,0
4950,4.0,0
4951,3.0,0
4952,5.0,0
4953,7.0,0
4954,4.0,0
4955,0.0,0
4956,0.0,0
4957,3.0,0
4958,5.0,0
4959,2.0,0
4960,14.0,0
4961,24.0,0
4962,17.0,0
4963,24.0,0
4964,32.0,0
4965,31.0,0
4966,30.0,0
4967,47.0,0
4968,74.0,0
4969,102.0,0
4970,130.0,0
4971,150.0,0
4972,164.0,0
4973,150.0,0
4974,93.0,0
4975,29.0,0
4976,-2.0,0
4977,-10.0,0
4978,-18.0,0
4979,-23.0,0
4980,-22.0,0
4981,-22.0,0
4982,-21.0,0
4983,-19.0,0
4984,-26.0,0
4985,-25.0,0
4986,-21.0,0
4987,-21.0,0
4988,-23.0,0
4989,-20.0,0
4990,-20.0,0
4991,-24.0,0
4992,-23.0,0
4993,-23.0,0
4994,-21.0,0
4995,-22.0,0
4996,-21.0,0
4997,-23.0,0
4998,-15.0,0
4999,-20.0,0
