timestamp,value,is_anomaly
0,679.0,0
1,661.0,0
2,643.0,0
3,624.0,0
4,604.0,0
5,584.0,0
6,563.0,0
7,540.0,0
8,516.0,0
9,491.0,0
10,467.0,0
11,446.0,0
12,427.0,0
13,410.0,0
14,394.0,0
15,379.0,0
16,364.0,0
17,349.0,0
18,334.0,0
19,318.0,0
20,301.0,0
21,283.0,0
22,266.0,0
23,251.0,0
24,237.0,0
25,225.0,0
26,213.0,0
27,201.0,0
28,189.0,0
29,177.0,0
30,165.0,0
31,153.0,0
32,141.0,0
33,129.0,0
34,118.0,0
35,108.0,0
36,99.0,0
37,91.0,0
38,82.0,0
39,71.0,0
40,59.0,0
41,46.0,0
42,32.0,0
43,18.0,0
44,5.0,0
45,-8.0,0
46,-21.0,0
47,-34.0,0
48,-47.0,0
49,-60.0,0
50,-75.0,0
51,-95.0,0
52,-119.0,0
53,-146.0,0
54,-175.0,0
55,-203.0,0
56,-230.0,0
57,-256.0,0
58,-282.0,0
59,-309.0,0
60,-336.0,0
61,-364.0,0
62,-391.0,0
63,-414.0,0
64,-435.0,0
65,-453.0,0
66,-470.0,0
67,-486.0,0
68,-501.0,0
69,-516.0,0
70,-531.0,0
71,-547.0,0
72,-563.0,0
73,-580.0,0
74,-595.0,0
75,-607.0,0
76,-617.0,0
77,-624.0,0
78,-632.0,0
79,-643.0,0
80,-656.0,0
81,-671.0,0
82,-686.0,0
83,-698.0,0
84,-707.0,0
85,-714.0,0
86,-721.0,0
87,-729.0,0
88,-739.0,0
89,-750.0,0
90,-761.0,0
91,-771.0,0
92,-780.0,0
93,-788.0,0
94,-795.0,0
95,-803.0,0
96,-811.0,0
97,-820.0,0
98,-828.0,0
99,-835.0,0
100,-841.0,0
101,-847.0,0
102,-853.0,0
103,-859.0,0
104,-866.0,0
105,-873.0,0
106,-879.0,0
107,-883.0,0
108,-886.0,0
109,-887.0,0
110,-889.0,0
111,-895.0,0
112,-904.0,0
113,-916.0,0
114,-929.0,0
115,-943.0,0
116,-958.0,0
117,-974.0,0
118,-990.0,0
119,-1006.0,0
120,-1022.0,0
121,-1039.0,0
122,-1054.0,0
123,-1067.0,0
124,-1078.0,0
125,-1088.0,0
126,-1096.0,0
127,-1101.0,0
128,-1104.0,0
129,-1105.0,0
130,-1106.0,0
131,-1108.0,0
132,-1111.0,0
133,-1114.0,0
134,-1117.0,0
135,-1120.0,0
136,-1122.0,0
137,-1124.0,0
138,-1126.0,0
139,-1128.0,0
140,-1131.0,0
141,-1135.0,0
142,-1138.0,0
143,-1141.0,0
144,-1143.0,0
145,-1145.0,0
146,-1147.0,0
147,-1149.0,0
148,-1152.0,0
149,-1156.0,0
150,-1161.0,0
151,-1169.0,0
152,-1179.0,0
153,-1191.0,0
154,-1203.0,0
155,-1213.0,0
156,-1221.0,0
157,-1227.0,0
158,-1233.0,0
159,-1239.0,0
160,-1245.0,0
161,-1251.0,0
162,-1256.0,0
163,-1260.0,0
164,-1263.0,0
165,-1265.0,0
166,-1266.0,0
167,-1265.0,0
168,-1262.0,0
169,-1258.0,0
170,-1252.0,0
171,-1244.0,0
172,-1234.0,0
173,-1223.0,0
174,-1213.0,0
175,-1206.0,0
176,-1202.0,0
177,-1201.0,0
178,-1202.0,0
179,-1205.0,0
180,-1210.0,0
181,-1216.0,0
182,-1223.0,0
183,-1230.0,0
184,-1236.0,0
185,-1242.0,0
186,-1249.0,0
187,-1257.0,0
188,-1266.0,0
189,-1275.0,0
190,-1284.0,0
191,-1293.0,0
192,-1301.0,0
193,-1309.0,0
194,-1317.0,0
195,-1326.0,0
196,-1335.0,0
197,-1345.0,0
198,-1355.0,0
199,-1365.0,0
200,-1376.0,0
201,-1387.0,0
202,-1397.0,0
203,-1405.0,0
204,-1411.0,0
205,-1415.0,0
206,-1418.0,0
207,-1420.0,0
208,-1421.0,0
209,-1421.0,0
210,-1421.0,0
211,-1421.0,0
212,-1421.0,0
213,-1422.0,0
214,-1423.0,0
215,-1423.0,0
216,-1422.0,0
217,-1420.0,0
218,-1418.0,0
219,-1415.0,0
220,-1412.0,0
221,-1408.0,0
222,-1405.0,0
223,-1402.0,0
224,-1400.0,0
225,-1399.0,0
226,-1397.0,0
227,-1392.0,0
228,-1385.0,0
229,-1375.0,0
230,-1365.0,0
231,-1357.0,0
232,-1351.0,0
233,-1346.0,0
234,-1341.0,0
235,-1335.0,0
236,-1328.0,0
237,-1320.0,0
238,-1311.0,0
239,-1300.0,0
240,-1288.0,0
241,-1274.0,0
242,-1260.0,0
243,-1247.0,0
244,-1234.0,0
245,-1221.0,0
246,-1208.0,0
247,-1195.0,0
248,-1182.0,0
249,-1170.0,0
250,-1158.0,0
251,-1148.0,0
252,-1139.0,0
253,-1131.0,0
254,-1124.0,0
255,-1118.0,0
256,-1112.0,0
257,-1107.0,0
258,-1104.0,0
259,-1103.0,0
260,-1105.0,0
261,-1109.0,0
262,-1111.0,0
263,-1109.0,0
264,-1104.0,0
265,-1096.0,0
266,-1087.0,0
267,-1081.0,0
268,-1077.0,0
269,-1075.0,0
270,-1073.0,0
271,-1070.0,0
272,-1066.0,0
273,-1061.0,0
274,-1056.0,0
275,-1052.0,0
276,-1048.0,0
277,-1045.0,0
278,-1039.0,0
279,-1028.0,0
280,-1012.0,0
281,-991.0,0
282,-967.0,0
283,-941.0,0
284,-914.0,0
285,-885.0,0
286,-855.0,0
287,-825.0,0
288,-795.0,0
289,-765.0,0
290,-736.0,0
291,-708.0,0
292,-682.0,0
293,-656.0,0
294,-633.0,0
295,-614.0,0
296,-599.0,0
297,-588.0,0
298,-580.0,0
299,-576.0,0
300,-575.0,0
301,-577.0,0
302,-580.0,0
303,-584.0,0
304,-589.0,0
305,-595.0,0
306,-601.0,0
307,-606.0,0
308,-611.0,0
309,-615.0,0
310,-619.0,0
311,-624.0,0
312,-630.0,0
313,-637.0,0
314,-643.0,0
315,-649.0,0
316,-654.0,0
317,-659.0,0
318,-664.0,0
319,-671.0,0
320,-680.0,0
321,-691.0,0
322,-701.0,0
323,-710.0,0
324,-718.0,0
325,-725.0,0
326,-730.0,0
327,-732.0,0
328,-732.0,0
329,-729.0,0
330,-725.0,0
331,-720.0,0
332,-714.0,0
333,-708.0,0
334,-701.0,0
335,-693.0,0
336,-683.0,0
337,-672.0,0
338,-661.0,0
339,-652.0,0
340,-644.0,0
341,-637.0,0
342,-629.0,0
343,-619.0,0
344,-606.0,0
345,-591.0,0
346,-576.0,0
347,-563.0,0
348,-552.0,0
349,-543.0,0
350,-532.0,0
351,-518.0,0
352,-501.0,0
353,-481.0,0
354,-459.0,0
355,-436.0,0
356,-413.0,0
357,-389.0,0
358,-365.0,0
359,-342.0,0
360,-319.0,0
361,-297.0,0
362,-276.0,0
363,-258.0,0
364,-243.0,0
365,-230.0,0
366,-218.0,0
367,-205.0,0
368,-191.0,0
369,-177.0,0
370,-161.0,0
371,-142.0,0
372,-121.0,0
373,-97.0,0
374,-73.0,0
375,-50.0,0
376,-27.0,0
377,-5.0,0
378,18.0,0
379,43.0,0
380,69.0,0
381,97.0,0
382,124.0,0
383,149.0,0
384,171.0,0
385,192.0,0
386,211.0,0
387,230.0,0
388,249.0,0
389,268.0,0
390,286.0,0
391,303.0,0
392,318.0,0
393,332.0,0
394,347.0,0
395,363.0,0
396,381.0,0
397,400.0,0
398,419.0,0
399,438.0,0
400,457.0,0
401,475.0,0
402,493.0,0
403,511.0,0
404,529.0,0
405,547.0,0
406,565.0,0
407,582.0,0
408,599.0,0
409,617.0,0
410,636.0,0
411,657.0,0
412,680.0,0
413,705.0,0
414,732.0,0
415,761.0,0
416,792.0,0
417,825.0,0
418,858.0,0
419,889.0,0
420,918.0,0
421,945.0,0
422,972.0,0
423,998.0,0
424,1024.0,0
425,1050.0,0
426,1076.0,0
427,1100.0,0
428,1123.0,0
429,1145.0,0
430,1166.0,0
431,1185.0,0
432,1202.0,0
433,1218.0,0
434,1231.0,0
435,1239.0,0
436,1243.0,0
437,1243.0,0
438,1241.0,0
439,1237.0,0
440,1232.0,0
441,1226.0,0
442,1219.0,0
443,1213.0,0
444,1207.0,0
445,1201.0,0
446,1193.0,0
447,1180.0,0
448,1163.0,0
449,1143.0,0
450,1121.0,0
451,1100.0,0
452,1080.0,0
453,1061.0,0
454,1040.0,0
455,1015.0,0
456,986.0,0
457,954.0,0
458,921.0,0
459,889.0,0
460,858.0,0
461,828.0,0
462,800.0,0
463,774.0,0
464,749.0,0
465,726.0,0
466,705.0,0
467,688.0,0
468,674.0,0
469,662.0,0
470,651.0,0
471,638.0,0
472,624.0,0
473,609.0,0
474,595.0,0
475,583.0,0
476,573.0,0
477,566.0,0
478,560.0,0
479,556.0,0
480,553.0,0
481,552.0,0
482,549.0,0
483,542.0,0
484,532.0,0
485,519.0,0
486,505.0,0
487,493.0,0
488,482.0,0
489,472.0,0
490,463.0,0
491,454.0,0
492,446.0,0
493,439.0,0
494,432.0,0
495,424.0,0
496,415.0,0
497,406.0,0
498,394.0,0
499,379.0,0
500,360.0,0
501,338.0,0
502,316.0,0
503,296.0,0
504,279.0,0
505,263.0,0
506,247.0,0
507,229.0,0
508,209.0,0
509,188.0,0
510,167.0,0
511,148.0,0
512,131.0,0
513,116.0,0
514,102.0,0
515,89.0,0
516,76.0,0
517,63.0,0
518,51.0,0
519,40.0,0
520,30.0,0
521,21.0,0
522,12.0,0
523,3.0,0
524,-7.0,0
525,-17.0,0
526,-26.0,0
527,-35.0,0
528,-43.0,0
529,-50.0,0
530,-56.0,0
531,-62.0,0
532,-67.0,0
533,-72.0,0
534,-77.0,0
535,-81.0,0
536,-85.0,0
537,-90.0,0
538,-94.0,0
539,-98.0,0
540,-102.0,0
541,-106.0,0
542,-112.0,0
543,-121.0,0
544,-134.0,0
545,-149.0,0
546,-165.0,0
547,-181.0,0
548,-197.0,0
549,-212.0,0
550,-228.0,0
551,-246.0,0
552,-266.0,0
553,-288.0,0
554,-310.0,0
555,-331.0,0
556,-351.0,0
557,-370.0,0
558,-388.0,0
559,-405.0,0
560,-421.0,0
561,-437.0,0
562,-452.0,0
563,-467.0,0
564,-481.0,0
565,-495.0,0
566,-509.0,0
567,-523.0,0
568,-536.0,0
569,-549.0,0
570,-563.0,0
571,-579.0,0
572,-597.0,0
573,-617.0,0
574,-637.0,0
575,-656.0,0
576,-674.0,0
577,-691.0,0
578,-709.0,0
579,-729.0,0
580,-750.0,0
581,-772.0,0
582,-794.0,0
583,-814.0,0
584,-833.0,0
585,-851.0,0
586,-868.0,0
587,-884.0,0
588,-900.0,0
589,-915.0,0
590,-930.0,0
591,-945.0,0
592,-961.0,0
593,-978.0,0
594,-994.0,0
595,-1009.0,0
596,-1023.0,0
597,-1037.0,0
598,-1050.0,0
599,-1062.0,0
600,-1074.0,0
601,-1085.0,0
602,-1096.0,0
603,-1108.0,0
604,-1120.0,0
605,-1133.0,0
606,-1146.0,0
607,-1158.0,0
608,-1169.0,0
609,-1180.0,0
610,-1189.0,0
611,-1197.0,0
612,-1203.0,0
613,-1208.0,0
614,-1213.0,0
615,-1218.0,0
616,-1223.0,0
617,-1228.0,0
618,-1233.0,0
619,-1237.0,0
620,-1239.0,0
621,-1241.0,0
622,-1243.0,0
623,-1245.0,0
624,-1247.0,0
625,-1250.0,0
626,-1254.0,0
627,-1259.0,0
628,-1266.0,0
629,-1274.0,0
630,-1282.0,0
631,-1289.0,0
632,-1296.0,0
633,-1303.0,0
634,-1309.0,0
635,-1315.0,0
636,-1321.0,0
637,-1327.0,0
638,-1332.0,0
639,-1336.0,0
640,-1338.0,0
641,-1339.0,0
642,-1340.0,0
643,-1342.0,0
644,-1344.0,0
645,-1346.0,0
646,-1347.0,0
647,-1346.0,0
648,-1344.0,0
649,-1340.0,0
650,-1336.0,0
651,-1335.0,0
652,-1336.0,0
653,-1338.0,0
654,-1341.0,0
655,-1343.0,0
656,-1344.0,0
657,-1344.0,0
658,-1345.0,0
659,-1347.0,0
660,-1351.0,0
661,-1356.0,0
662,-1361.0,0
663,-1366.0,0
664,-1371.0,0
665,-1376.0,0
666,-1382.0,0
667,-1392.0,0
668,-1404.0,0
669,-1419.0,0
670,-1434.0,0
671,-1447.0,0
672,-1459.0,0
673,-1470.0,0
674,-1478.0,0
675,-1483.0,0
676,-1485.0,0
677,-1485.0,0
678,-1484.0,0
679,-1483.0,0
680,-1483.0,0
681,-1483.0,0
682,-1481.0,0
683,-1476.0,0
684,-1469.0,0
685,-1459.0,0
686,-1449.0,0
687,-1441.0,0
688,-1434.0,0
689,-1429.0,0
690,-1423.0,0
691,-1415.0,0
692,-1405.0,0
693,-1393.0,0
694,-1381.0,0
695,-1371.0,0
696,-1363.0,0
697,-1357.0,0
698,-1350.0,0
699,-1341.0,0
700,-1330.0,0
701,-1318.0,0
702,-1303.0,0
703,-1285.0,0
704,-1264.0,0
705,-1241.0,0
706,-1215.0,0
707,-1186.0,0
708,-1155.0,0
709,-1122.0,0
710,-1089.0,0
711,-1057.0,0
712,-1027.0,0
713,-998.0,0
714,-970.0,0
715,-941.0,0
716,-912.0,0
717,-883.0,0
718,-853.0,0
719,-820.0,0
720,-785.0,0
721,-748.0,0
722,-711.0,0
723,-675.0,0
724,-640.0,0
725,-606.0,0
726,-572.0,0
727,-539.0,0
728,-507.0,0
729,-475.0,0
730,-445.0,0
731,-419.0,0
732,-397.0,0
733,-378.0,0
734,-359.0,0
735,-339.0,0
736,-318.0,0
737,-296.0,0
738,-275.0,0
739,-255.0,0
740,-237.0,0
741,-220.0,0
742,-205.0,0
743,-192.0,0
744,-181.0,0
745,-171.0,0
746,-163.0,0
747,-158.0,0
748,-155.0,0
749,-154.0,0
750,-155.0,0
751,-159.0,0
752,-165.0,0
753,-173.0,0
754,-181.0,0
755,-187.0,0
756,-191.0,0
757,-193.0,0
758,-195.0,0
759,-199.0,0
760,-204.0,0
761,-210.0,0
762,-215.0,0
763,-218.0,0
764,-220.0,0
765,-221.0,0
766,-222.0,0
767,-224.0,0
768,-227.0,0
769,-231.0,0
770,-235.0,0
771,-237.0,0
772,-238.0,0
773,-238.0,0
774,-239.0,0
775,-242.0,0
776,-248.0,0
777,-256.0,0
778,-264.0,0
779,-271.0,0
780,-278.0,0
781,-284.0,0
782,-289.0,0
783,-294.0,0
784,-299.0,0
785,-303.0,0
786,-307.0,0
787,-310.0,0
788,-313.0,0
789,-316.0,0
790,-319.0,0
791,-322.0,0
792,-325.0,0
793,-327.0,0
794,-329.0,0
795,-329.0,0
796,-328.0,0
797,-326.0,0
798,-322.0,0
799,-313.0,0
800,-301.0,0
801,-285.0,0
802,-267.0,0
803,-248.0,0
804,-227.0,0
805,-205.0,0
806,-182.0,0
807,-157.0,0
808,-130.0,0
809,-102.0,0
810,-74.0,0
811,-47.0,0
812,-21.0,0
813,4.0,0
814,27.0,0
815,48.0,0
816,67.0,0
817,85.0,0
818,102.0,0
819,119.0,0
820,136.0,0
821,153.0,0
822,170.0,0
823,186.0,0
824,201.0,0
825,215.0,0
826,228.0,0
827,240.0,0
828,251.0,0
829,262.0,0
830,272.0,0
831,280.0,0
832,287.0,0
833,293.0,0
834,299.0,0
835,308.0,0
836,319.0,0
837,333.0,0
838,347.0,0
839,360.0,0
840,372.0,0
841,384.0,0
842,396.0,0
843,408.0,0
844,421.0,0
845,434.0,0
846,448.0,0
847,462.0,0
848,477.0,0
849,492.0,0
850,507.0,0
851,522.0,0
852,538.0,0
853,554.0,0
854,569.0,0
855,583.0,0
856,596.0,0
857,608.0,0
858,622.0,0
859,638.0,0
860,657.0,0
861,678.0,0
862,702.0,0
863,729.0,0
864,758.0,0
865,790.0,0
866,821.0,0
867,848.0,0
868,873.0,0
869,896.0,0
870,920.0,0
871,948.0,0
872,979.0,0
873,1013.0,0
874,1048.0,0
875,1082.0,0
876,1115.0,0
877,1147.0,0
878,1179.0,0
879,1211.0,0
880,1244.0,0
881,1277.0,0
882,1310.0,0
883,1342.0,0
884,1373.0,0
885,1403.0,0
886,1432.0,0
887,1459.0,0
888,1485.0,0
889,1509.0,0
890,1533.0,0
891,1559.0,0
892,1586.0,0
893,1614.0,0
894,1642.0,0
895,1670.0,0
896,1697.0,0
897,1724.0,0
898,1751.0,0
899,1777.0,0
900,1803.0,0
901,1829.0,0
902,1853.0,0
903,1873.0,0
904,1890.0,0
905,1904.0,0
906,1918.0,0
907,1934.0,0
908,1953.0,0
909,1974.0,0
910,1993.0,0
911,2006.0,0
912,2014.0,0
913,2018.0,0
914,2018.0,0
915,2016.0,0
916,2013.0,0
917,2008.0,0
918,2001.0,0
919,1992.0,0
920,1981.0,0
921,1968.0,0
922,1953.0,0
923,1937.0,0
924,1920.0,0
925,1901.0,0
926,1882.0,0
927,1862.0,0
928,1841.0,0
929,1819.0,0
930,1797.0,0
931,1775.0,0
932,1752.0,0
933,1729.0,0
934,1705.0,0
935,1681.0,0
936,1657.0,0
937,1633.0,0
938,1609.0,0
939,1585.0,0
940,1561.0,0
941,1536.0,0
942,1513.0,0
943,1492.0,0
944,1473.0,0
945,1456.0,0
946,1438.0,0
947,1416.0,0
948,1392.0,0
949,1365.0,0
950,1338.0,0
951,1312.0,0
952,1288.0,0
953,1265.0,0
954,1242.0,0
955,1217.0,0
956,1191.0,0
957,1164.0,0
958,1137.0,0
959,1112.0,0
960,1088.0,0
961,1066.0,0
962,1045.0,0
963,1025.0,0
964,1005.0,0
965,986.0,0
966,967.0,0
967,947.0,0
968,927.0,0
969,906.0,0
970,885.0,0
971,863.0,0
972,840.0,0
973,817.0,0
974,792.0,0
975,765.0,0
976,735.0,0
977,703.0,0
978,671.0,0
979,641.0,0
980,613.0,0
981,586.0,0
982,560.0,0
983,532.0,0
984,503.0,0
985,473.0,0
986,444.0,0
987,417.0,0
988,391.0,0
989,367.0,0
990,343.0,0
991,319.0,0
992,295.0,0
993,271.0,0
994,248.0,0
995,228.0,0
996,209.0,0
997,192.0,0
998,176.0,0
999,159.0,0
1000,141.0,0
1001,122.0,0
1002,103.0,0
1003,84.0,0
1004,66.0,0
1005,49.0,0
1006,33.0,0
1007,18.0,0
1008,5.0,0
1009,-7.0,0
1010,-21.0,0
1011,-39.0,0
1012,-60.0,0
1013,-84.0,0
1014,-108.0,0
1015,-131.0,0
1016,-153.0,0
1017,-174.0,0
1018,-193.0,0
1019,-212.0,0
1020,-230.0,0
1021,-247.0,0
1022,-263.0,0
1023,-277.0,0
1024,-290.0,0
1025,-302.0,0
1026,-313.0,0
1027,-324.0,0
1028,-336.0,0
1029,-348.0,0
1030,-360.0,0
1031,-372.0,0
1032,-384.0,0
1033,-396.0,0
1034,-409.0,0
1035,-424.0,0
1036,-442.0,0
1037,-461.0,0
1038,-482.0,0
1039,-504.0,0
1040,-528.0,0
1041,-553.0,0
1042,-577.0,0
1043,-598.0,0
1044,-616.0,0
1045,-632.0,0
1046,-647.0,0
1047,-661.0,0
1048,-675.0,0
1049,-689.0,0
1050,-702.0,0
1051,-715.0,0
1052,-728.0,0
1053,-741.0,0
1054,-753.0,0
1055,-763.0,0
1056,-772.0,0
1057,-780.0,0
1058,-788.0,0
1059,-796.0,0
1060,-805.0,0
1061,-814.0,0
1062,-823.0,0
1063,-832.0,0
1064,-841.0,0
1065,-851.0,0
1066,-861.0,0
1067,-872.0,0
1068,-885.0,0
1069,-899.0,0
1070,-915.0,0
1071,-934.0,0
1072,-955.0,0
1073,-979.0,0
1074,-1002.0,0
1075,-1022.0,0
1076,-1039.0,0
1077,-1054.0,0
1078,-1068.0,0
1079,-1082.0,0
1080,-1097.0,0
1081,-1112.0,0
1082,-1126.0,0
1083,-1139.0,0
1084,-1152.0,0
1085,-1164.0,0
1086,-1174.0,0
1087,-1183.0,0
1088,-1190.0,0
1089,-1196.0,0
1090,-1202.0,0
1091,-1209.0,0
1092,-1217.0,0
1093,-1226.0,0
1094,-1235.0,0
1095,-1244.0,0
1096,-1252.0,0
1097,-1260.0,0
1098,-1268.0,0
1099,-1277.0,0
1100,-1287.0,0
1101,-1297.0,0
1102,-1305.0,0
1103,-1309.0,0
1104,-1310.0,0
1105,-1307.0,0
1106,-1304.0,0
1107,-1303.0,0
1108,-1304.0,0
1109,-1307.0,0
1110,-1310.0,0
1111,-1312.0,0
1112,-1314.0,0
1113,-1315.0,0
1114,-1314.0,0
1115,-1312.0,0
1116,-1308.0,0
1117,-1303.0,0
1118,-1298.0,0
1119,-1293.0,0
1120,-1288.0,0
1121,-1283.0,0
1122,-1279.0,0
1123,-1276.0,0
1124,-1274.0,0
1125,-1273.0,0
1126,-1273.0,0
1127,-1275.0,0
1128,-1279.0,0
1129,-1284.0,0
1130,-1289.0,0
1131,-1293.0,0
1132,-1296.0,0
1133,-1298.0,0
1134,-1301.0,0
1135,-1307.0,0
1136,-1315.0,0
1137,-1325.0,0
1138,-1335.0,0
1139,-1344.0,0
1140,-1353.0,0
1141,-1361.0,0
1142,-1368.0,0
1143,-1375.0,0
1144,-1381.0,0
1145,-1387.0,0
1146,-1393.0,0
1147,-1398.0,0
1148,-1403.0,0
1149,-1408.0,0
1150,-1412.0,0
1151,-1415.0,0
1152,-1417.0,0
1153,-1417.0,0
1154,-1417.0,0
1155,-1418.0,0
1156,-1419.0,0
1157,-1420.0,0
1158,-1422.0,0
1159,-1424.0,0
1160,-1426.0,0
1161,-1428.0,0
1162,-1430.0,0
1163,-1432.0,0
1164,-1434.0,0
1165,-1436.0,0
1166,-1437.0,0
1167,-1436.0,0
1168,-1433.0,0
1169,-1428.0,0
1170,-1423.0,0
1171,-1419.0,0
1172,-1416.0,0
1173,-1414.0,0
1174,-1412.0,0
1175,-1410.0,0
1176,-1407.0,0
1177,-1404.0,0
1178,-1401.0,0
1179,-1397.0,0
1180,-1393.0,0
1181,-1389.0,0
1182,-1385.0,0
1183,-1381.0,0
1184,-1376.0,0
1185,-1371.0,0
1186,-1366.0,0
1187,-1360.0,0
1188,-1353.0,0
1189,-1345.0,0
1190,-1337.0,0
1191,-1329.0,0
1192,-1322.0,0
1193,-1315.0,0
1194,-1308.0,0
1195,-1302.0,0
1196,-1296.0,0
1197,-1290.0,0
1198,-1286.0,0
1199,-1284.0,0
1200,-1284.0,0
1201,-1286.0,0
1202,-1288.0,0
1203,-1288.0,0
1204,-1286.0,0
1205,-1283.0,0
1206,-1280.0,0
1207,-1278.0,0
1208,-1277.0,0
1209,-1277.0,0
1210,-1276.0,0
1211,-1274.0,0
1212,-1270.0,0
1213,-1265.0,0
1214,-1260.0,0
1215,-1257.0,0
1216,-1255.0,0
1217,-1254.0,0
1218,-1253.0,0
1219,-1250.0,0
1220,-1246.0,0
1221,-1241.0,0
1222,-1236.0,0
1223,-1234.0,0
1224,-1234.0,0
1225,-1236.0,0
1226,-1239.0,0
1227,-1241.0,0
1228,-1242.0,0
1229,-1243.0,0
1230,-1243.0,0
1231,-1241.0,0
1232,-1238.0,0
1233,-1233.0,0
1234,-1228.0,0
1235,-1223.0,0
1236,-1219.0,0
1237,-1215.0,0
1238,-1211.0,0
1239,-1207.0,0
1240,-1203.0,0
1241,-1199.0,0
1242,-1197.0,0
1243,-1199.0,0
1244,-1204.0,0
1245,-1212.0,0
1246,-1220.0,0
1247,-1227.0,0
1248,-1232.0,0
1249,-1236.0,0
1250,-1240.0,0
1251,-1244.0,0
1252,-1248.0,0
1253,-1252.0,0
1254,-1255.0,0
1255,-1256.0,0
1256,-1255.0,0
1257,-1253.0,0
1258,-1251.0,0
1259,-1250.0,0
1260,-1249.0,0
1261,-1249.0,0
1262,-1249.0,0
1263,-1247.0,0
1264,-1244.0,0
1265,-1240.0,0
1266,-1235.0,0
1267,-1229.0,0
1268,-1222.0,0
1269,-1214.0,0
1270,-1205.0,0
1271,-1195.0,0
1272,-1183.0,0
1273,-1170.0,0
1274,-1156.0,0
1275,-1142.0,0
1276,-1127.0,0
1277,-1111.0,0
1278,-1096.0,0
1279,-1081.0,0
1280,-1067.0,0
1281,-1053.0,0
1282,-1039.0,0
1283,-1025.0,0
1284,-1010.0,0
1285,-994.0,0
1286,-977.0,0
1287,-959.0,0
1288,-939.0,0
1289,-918.0,0
1290,-895.0,0
1291,-870.0,0
1292,-843.0,0
1293,-815.0,0
1294,-787.0,0
1295,-761.0,0
1296,-738.0,0
1297,-716.0,0
1298,-695.0,0
1299,-673.0,0
1300,-650.0,0
1301,-626.0,0
1302,-601.0,0
1303,-576.0,0
1304,-550.0,0
1305,-524.0,0
1306,-499.0,0
1307,-476.0,0
1308,-455.0,0
1309,-435.0,0
1310,-417.0,0
1311,-400.0,0
1312,-384.0,0
1313,-369.0,0
1314,-355.0,0
1315,-343.0,0
1316,-333.0,0
1317,-325.0,0
1318,-315.0,0
1319,-302.0,0
1320,-286.0,0
1321,-267.0,0
1322,-247.0,0
1323,-229.0,0
1324,-212.0,0
1325,-196.0,0
1326,-180.0,0
1327,-164.0,0
1328,-148.0,0
1329,-132.0,0
1330,-115.0,0
1331,-98.0,0
1332,-81.0,0
1333,-64.0,0
1334,-47.0,0
1335,-30.0,0
1336,-13.0,0
1337,4.0,0
1338,22.0,0
1339,41.0,0
1340,61.0,0
1341,82.0,0
1342,104.0,0
1343,127.0,0
1344,151.0,0
1345,175.0,0
1346,200.0,0
1347,227.0,0
1348,255.0,0
1349,284.0,0
1350,314.0,0
1351,345.0,0
1352,377.0,0
1353,410.0,0
1354,444.0,0
1355,479.0,0
1356,516.0,0
1357,554.0,0
1358,592.0,0
1359,629.0,0
1360,664.0,0
1361,698.0,0
1362,733.0,0
1363,769.0,0
1364,806.0,0
1365,845.0,0
1366,884.0,0
1367,922.0,0
1368,960.0,0
1369,998.0,0
1370,1036.0,0
1371,1073.0,0
1372,1110.0,0
1373,1147.0,0
1374,1182.0,0
1375,1213.0,0
1376,1241.0,0
1377,1266.0,0
1378,1287.0,0
1379,1304.0,0
1380,1317.0,0
1381,1326.0,0
1382,1333.0,0
1383,1339.0,0
1384,1343.0,0
1385,1346.0,0
1386,1347.0,0
1387,1345.0,0
1388,1340.0,0
1389,1332.0,0
1390,1322.0,0
1391,1310.0,0
1392,1297.0,0
1393,1282.0,0
1394,1264.0,0
1395,1241.0,0
1396,1214.0,0
1397,1184.0,0
1398,1153.0,0
1399,1125.0,0
1400,1098.0,0
1401,1073.0,0
1402,1048.0,0
1403,1022.0,0
1404,995.0,0
1405,967.0,0
1406,938.0,0
1407,909.0,0
1408,879.0,0
1409,848.0,0
1410,817.0,0
1411,786.0,0
1412,755.0,0
1413,723.0,0
1414,692.0,0
1415,662.0,0
1416,633.0,0
1417,604.0,0
1418,576.0,0
1419,549.0,0
1420,522.0,0
1421,496.0,0
1422,469.0,0
1423,442.0,0
1424,414.0,0
1425,385.0,0
1426,357.0,0
1427,331.0,0
1428,307.0,0
1429,284.0,0
1430,261.0,0
1431,237.0,0
1432,212.0,0
1433,186.0,0
1434,160.0,0
1435,134.0,0
1436,109.0,0
1437,84.0,0
1438,59.0,0
1439,35.0,0
1440,11.0,0
1441,-13.0,0
1442,-37.0,0
1443,-62.0,0
1444,-88.0,0
1445,-115.0,0
1446,-140.0,0
1447,-162.0,0
1448,-182.0,0
1449,-200.0,0
1450,-216.0,0
1451,-230.0,0
1452,-242.0,0
1453,-253.0,0
1454,-263.0,0
1455,-273.0,0
1456,-284.0,0
1457,-295.0,0
1458,-306.0,0
1459,-317.0,0
1460,-328.0,0
1461,-339.0,0
1462,-351.0,0
1463,-364.0,0
1464,-378.0,0
1465,-393.0,0
1466,-410.0,0
1467,-430.0,0
1468,-453.0,0
1469,-478.0,0
1470,-504.0,0
1471,-529.0,0
1472,-554.0,0
1473,-578.0,0
1474,-601.0,0
1475,-622.0,0
1476,-642.0,0
1477,-661.0,0
1478,-679.0,0
1479,-696.0,0
1480,-712.0,0
1481,-727.0,0
1482,-743.0,0
1483,-761.0,0
1484,-781.0,0
1485,-802.0,0
1486,-822.0,0
1487,-840.0,0
1488,-856.0,0
1489,-870.0,0
1490,-883.0,0
1491,-897.0,0
1492,-912.0,0
1493,-927.0,0
1494,-942.0,0
1495,-955.0,0
1496,-966.0,0
1497,-976.0,0
1498,-984.0,0
1499,-991.0,0
1500,-998.0,0
1501,-1004.0,0
1502,-1010.0,0
1503,-1017.0,0
1504,-1026.0,0
1505,-1036.0,0
1506,-1046.0,0
1507,-1055.0,0
1508,-1062.0,0
1509,-1068.0,0
1510,-1075.0,0
1511,-1083.0,0
1512,-1092.0,0
1513,-1102.0,0
1514,-1113.0,0
1515,-1125.0,0
1516,-1137.0,0
1517,-1150.0,0
1518,-1163.0,0
1519,-1176.0,0
1520,-1190.0,0
1521,-1204.0,0
1522,-1217.0,0
1523,-1229.0,0
1524,-1241.0,0
1525,-1252.0,0
1526,-1263.0,0
1527,-1276.0,0
1528,-1290.0,0
1529,-1305.0,0
1530,-1320.0,0
1531,-1334.0,0
1532,-1346.0,0
1533,-1357.0,0
1534,-1366.0,0
1535,-1374.0,0
1536,-1380.0,0
1537,-1384.0,0
1538,-1387.0,0
1539,-1389.0,0
1540,-1390.0,0
1541,-1390.0,0
1542,-1389.0,0
1543,-1388.0,0
1544,-1386.0,0
1545,-1383.0,0
1546,-1380.0,0
1547,-1377.0,0
1548,-1374.0,0
1549,-1370.0,0
1550,-1366.0,0
1551,-1360.0,0
1552,-1353.0,0
1553,-1345.0,0
1554,-1338.0,0
1555,-1334.0,0
1556,-1332.0,0
1557,-1333.0,0
1558,-1335.0,0
1559,-1337.0,0
1560,-1339.0,0
1561,-1341.0,0
1562,-1345.0,0
1563,-1351.0,0
1564,-1359.0,0
1565,-1369.0,0
1566,-1381.0,0
1567,-1394.0,0
1568,-1408.0,0
1569,-1423.0,0
1570,-1438.0,0
1571,-1451.0,0
1572,-1463.0,0
1573,-1473.0,0
1574,-1482.0,0
1575,-1490.0,0
1576,-1497.0,0
1577,-1504.0,0
1578,-1509.0,0
1579,-1511.0,0
1580,-1510.0,0
1581,-1507.0,0
1582,-1504.0,0
1583,-1501.0,0
1584,-1499.0,0
1585,-1498.0,0
1586,-1497.0,0
1587,-1496.0,0
1588,-1496.0,0
1589,-1496.0,0
1590,-1497.0,0
1591,-1501.0,0
1592,-1507.0,0
1593,-1515.0,0
1594,-1523.0,0
1595,-1529.0,0
1596,-1533.0,0
1597,-1535.0,0
1598,-1536.0,0
1599,-1536.0,0
1600,-1535.0,0
1601,-1533.0,0
1602,-1530.0,0
1603,-1527.0,0
1604,-1523.0,0
1605,-1518.0,0
1606,-1513.0,0
1607,-1508.0,0
1608,-1503.0,0
1609,-1497.0,0
1610,-1490.0,0
1611,-1481.0,0
1612,-1470.0,0
1613,-1457.0,0
1614,-1442.0,0
1615,-1426.0,0
1616,-1409.0,0
1617,-1391.0,0
1618,-1373.0,0
1619,-1356.0,0
1620,-1339.0,0
1621,-1323.0,0
1622,-1308.0,0
1623,-1294.0,0
1624,-1282.0,0
1625,-1271.0,0
1626,-1261.0,0
1627,-1252.0,0
1628,-1244.0,0
1629,-1236.0,0
1630,-1228.0,0
1631,-1220.0,0
1632,-1211.0,0
1633,-1202.0,0
1634,-1193.0,0
1635,-1185.0,0
1636,-1178.0,0
1637,-1172.0,0
1638,-1166.0,0
1639,-1161.0,0
1640,-1156.0,0
1641,-1151.0,0
1642,-1147.0,0
1643,-1143.0,0
1644,-1140.0,0
1645,-1137.0,0
1646,-1134.0,0
1647,-1133.0,0
1648,-1133.0,0
1649,-1134.0,0
1650,-1135.0,0
1651,-1136.0,0
1652,-1136.0,0
1653,-1136.0,0
1654,-1137.0,0
1655,-1138.0,0
1656,-1140.0,0
1657,-1143.0,0
1658,-1145.0,0
1659,-1146.0,0
1660,-1145.0,0
1661,-1143.0,0
1662,-1140.0,0
1663,-1137.0,0
1664,-1134.0,0
1665,-1132.0,0
1666,-1130.0,0
1667,-1128.0,0
1668,-1126.0,0
1669,-1124.0,0
1670,-1123.0,0
1671,-1124.0,0
1672,-1127.0,0
1673,-1132.0,0
1674,-1137.0,0
1675,-1140.0,0
1676,-1141.0,0
1677,-1141.0,0
1678,-1140.0,0
1679,-1140.0,0
1680,-1141.0,0
1681,-1143.0,0
1682,-1146.0,0
1683,-1149.0,0
1684,-1153.0,0
1685,-1157.0,0
1686,-1162.0,0
1687,-1167.0,0
1688,-1172.0,0
1689,-1177.0,0
1690,-1183.0,0
1691,-1189.0,0
1692,-1195.0,0
1693,-1201.0,0
1694,-1206.0,0
1695,-1210.0,0
1696,-1213.0,0
1697,-1215.0,0
1698,-1218.0,0
1699,-1224.0,0
1700,-1233.0,0
1701,-1244.0,0
1702,-1255.0,0
1703,-1265.0,0
1704,-1275.0,0
1705,-1284.0,0
1706,-1292.0,0
1707,-1300.0,0
1708,-1307.0,0
1709,-1314.0,0
1710,-1321.0,0
1711,-1327.0,0
1712,-1333.0,0
1713,-1339.0,0
1714,-1345.0,0
1715,-1350.0,0
1716,-1355.0,0
1717,-1360.0,0
1718,-1364.0,0
1719,-1367.0,0
1720,-1369.0,0
1721,-1370.0,0
1722,-1369.0,0
1723,-1365.0,0
1724,-1358.0,0
1725,-1349.0,0
1726,-1340.0,0
1727,-1331.0,0
1728,-1323.0,0
1729,-1315.0,0
1730,-1307.0,0
1731,-1297.0,0
1732,-1285.0,0
1733,-1272.0,0
1734,-1259.0,0
1735,-1247.0,0
1736,-1237.0,0
1737,-1227.0,0
1738,-1217.0,0
1739,-1204.0,0
1740,-1189.0,0
1741,-1172.0,0
1742,-1155.0,0
1743,-1139.0,0
1744,-1123.0,0
1745,-1108.0,0
1746,-1092.0,0
1747,-1075.0,0
1748,-1056.0,0
1749,-1036.0,0
1750,-1015.0,0
1751,-993.0,0
1752,-969.0,0
1753,-945.0,0
1754,-919.0,0
1755,-892.0,0
1756,-863.0,0
1757,-833.0,0
1758,-802.0,0
1759,-770.0,0
1760,-737.0,0
1761,-703.0,0
1762,-668.0,0
1763,-633.0,0
1764,-597.0,0
1765,-561.0,0
1766,-524.0,0
1767,-485.0,0
1768,-445.0,0
1769,-404.0,0
1770,-364.0,0
1771,-328.0,0
1772,-296.0,0
1773,-267.0,0
1774,-238.0,0
1775,-206.0,0
1776,-172.0,0
1777,-136.0,0
1778,-100.0,0
1779,-63.0,0
1780,-26.0,0
1781,11.0,0
1782,51.0,0
1783,95.0,0
1784,144.0,0
1785,196.0,0
1786,248.0,0
1787,295.0,0
1788,339.0,0
1789,379.0,0
1790,416.0,0
1791,451.0,0
1792,483.0,0
1793,514.0,0
1794,545.0,0
1795,578.0,0
1796,612.0,0
1797,648.0,0
1798,684.0,0
1799,717.0,0
1800,748.0,0
1801,777.0,0
1802,806.0,0
1803,836.0,0
1804,866.0,0
1805,897.0,0
1806,927.0,0
1807,954.0,0
1808,978.0,0
1809,1000.0,0
1810,1022.0,0
1811,1046.0,0
1812,1071.0,0
1813,1097.0,0
1814,1125.0,0
1815,1153.0,0
1816,1183.0,0
1817,1213.0,0
1818,1244.0,0
1819,1275.0,0
1820,1307.0,0
1821,1340.0,0
1822,1372.0,0
1823,1401.0,0
1824,1429.0,0
1825,1455.0,0
1826,1479.0,0
1827,1500.0,0
1828,1519.0,0
1829,1537.0,0
1830,1554.0,0
1831,1572.0,0
1832,1591.0,0
1833,1611.0,0
1834,1629.0,0
1835,1643.0,0
1836,1653.0,0
1837,1660.0,0
1838,1665.0,0
1839,1670.0,0
1840,1675.0,0
1841,1680.0,0
1842,1684.0,0
1843,1685.0,0
1844,1684.0,0
1845,1681.0,0
1846,1677.0,0
1847,1672.0,0
1848,1665.0,0
1849,1657.0,0
1850,1648.0,0
1851,1637.0,0
1852,1624.0,0
1853,1609.0,0
1854,1594.0,0
1855,1579.0,0
1856,1564.0,0
1857,1549.0,0
1858,1532.0,0
1859,1513.0,0
1860,1492.0,0
1861,1469.0,0
1862,1446.0,0
1863,1424.0,0
1864,1403.0,0
1865,1383.0,0
1866,1364.0,0
1867,1345.0,0
1868,1327.0,0
1869,1309.0,0
1870,1291.0,0
1871,1272.0,0
1872,1253.0,0
1873,1233.0,0
1874,1213.0,0
1875,1194.0,0
1876,1175.0,0
1877,1157.0,0
1878,1139.0,0
1879,1120.0,0
1880,1100.0,0
1881,1080.0,0
1882,1060.0,0
1883,1041.0,0
1884,1022.0,0
1885,1004.0,0
1886,986.0,0
1887,967.0,0
1888,947.0,0
1889,927.0,0
1890,908.0,0
1891,891.0,0
1892,875.0,0
1893,861.0,0
1894,847.0,0
1895,834.0,0
1896,820.0,0
1897,806.0,0
1898,793.0,0
1899,780.0,0
1900,766.0,0
1901,752.0,0
1902,738.0,0
1903,723.0,0
1904,707.0,0
1905,690.0,0
1906,673.0,0
1907,656.0,0
1908,640.0,0
1909,624.0,0
1910,606.0,0
1911,585.0,0
1912,561.0,0
1913,535.0,0
1914,508.0,0
1915,482.0,0
1916,456.0,0
1917,430.0,0
1918,405.0,0
1919,382.0,0
1920,360.0,0
1921,339.0,0
1922,319.0,0
1923,299.0,0
1924,278.0,0
1925,257.0,0
1926,237.0,0
1927,219.0,0
1928,203.0,0
1929,189.0,0
1930,176.0,0
1931,163.0,0
1932,150.0,0
1933,137.0,0
1934,123.0,0
1935,107.0,0
1936,89.0,0
1937,69.0,0
1938,49.0,0
1939,30.0,0
1940,11.0,0
1941,-7.0,0
1942,-24.0,0
1943,-40.0,0
1944,-56.0,0
1945,-71.0,0
1946,-86.0,0
1947,-102.0,0
1948,-119.0,0
1949,-137.0,0
1950,-155.0,0
1951,-173.0,0
1952,-192.0,0
1953,-211.0,0
1954,-229.0,0
1955,-245.0,0
1956,-260.0,0
1957,-273.0,0
1958,-286.0,0
1959,-302.0,0
1960,-320.0,0
1961,-339.0,0
1962,-359.0,0
1963,-379.0,0
1964,-400.0,0
1965,-421.0,0
1966,-441.0,0
1967,-460.0,0
1968,-478.0,0
1969,-495.0,0
1970,-511.0,0
1971,-526.0,0
1972,-541.0,0
1973,-556.0,0
1974,-571.0,0
1975,-586.0,0
1976,-602.0,0
1977,-619.0,0
1978,-636.0,0
1979,-652.0,0
1980,-667.0,0
1981,-682.0,0
1982,-697.0,0
1983,-712.0,0
1984,-728.0,0
1985,-745.0,0
1986,-762.0,0
1987,-779.0,0
1988,-797.0,0
1989,-815.0,0
1990,-832.0,0
1991,-847.0,0
1992,-860.0,0
1993,-872.0,0
1994,-883.0,0
1995,-894.0,0
1996,-905.0,0
1997,-916.0,0
1998,-926.0,0
1999,-935.0,0
2000,-943.0,0
2001,-950.0,0
2002,-956.0,0
2003,-961.0,0
2004,-966.0,0
2005,-970.0,0
2006,-973.0,0
2007,-976.0,0
2008,-979.0,0
2009,-981.0,0
2010,-984.0,0
2011,-990.0,0
2012,-997.0,0
2013,-1006.0,0
2014,-1016.0,0
2015,-1027.0,0
2016,-1039.0,0
2017,-1052.0,0
2018,-1065.0,0
2019,-1079.0,0
2020,-1093.0,0
2021,-1108.0,0
2022,-1124.0,0
2023,-1142.0,0
2024,-1163.0,0
2025,-1185.0,0
2026,-1207.0,0
2027,-1227.0,0
2028,-1245.0,0
2029,-1261.0,0
2030,-1277.0,0
2031,-1294.0,0
2032,-1311.0,0
2033,-1329.0,0
2034,-1346.0,0
2035,-1361.0,0
2036,-1375.0,0
2037,-1388.0,0
2038,-1399.0,0
2039,-1409.0,0
2040,-1418.0,0
2041,-1426.0,0
2042,-1434.0,0
2043,-1443.0,0
2044,-1452.0,0
2045,-1461.0,0
2046,-1469.0,0
2047,-1475.0,0
2048,-1480.0,0
2049,-1483.0,0
2050,-1484.0,0
2051,-1483.0,0
2052,-1480.0,0
2053,-1475.0,0
2054,-1469.0,0
2055,-1463.0,0
2056,-1457.0,0
2057,-1451.0,0
2058,-1445.0,0
2059,-1439.0,0
2060,-1433.0,0
2061,-1427.0,0
2062,-1420.0,0
2063,-1411.0,0
2064,-1400.0,0
2065,-1387.0,0
2066,-1373.0,0
2067,-1360.0,0
2068,-1346.0,0
2069,-1332.0,0
2070,-1319.0,0
2071,-1307.0,0
2072,-1296.0,0
2073,-1286.0,0
2074,-1277.0,0
2075,-1269.0,0
2076,-1262.0,0
2077,-1255.0,0
2078,-1248.0,0
2079,-1240.0,0
2080,-1232.0,0
2081,-1223.0,0
2082,-1216.0,0
2083,-1212.0,0
2084,-1210.0,0
2085,-1211.0,0
2086,-1212.0,0
2087,-1211.0,0
2088,-1209.0,0
2089,-1205.0,0
2090,-1201.0,0
2091,-1197.0,0
2092,-1193.0,0
2093,-1189.0,0
2094,-1187.0,0
2095,-1187.0,0
2096,-1189.0,0
2097,-1193.0,0
2098,-1197.0,0
2099,-1199.0,0
2100,-1199.0,0
2101,-1197.0,0
2102,-1196.0,0
2103,-1197.0,0
2104,-1200.0,0
2105,-1205.0,0
2106,-1210.0,0
2107,-1214.0,0
2108,-1217.0,0
2109,-1219.0,0
2110,-1222.0,0
2111,-1226.0,0
2112,-1232.0,0
2113,-1239.0,0
2114,-1246.0,0
2115,-1251.0,0
2116,-1255.0,0
2117,-1258.0,0
2118,-1261.0,0
2119,-1264.0,0
2120,-1267.0,0
2121,-1271.0,0
2122,-1274.0,0
2123,-1276.0,0
2124,-1278.0,0
2125,-1279.0,0
2126,-1280.0,0
2127,-1281.0,0
2128,-1283.0,0
2129,-1285.0,0
2130,-1287.0,0
2131,-1288.0,0
2132,-1288.0,0
2133,-1288.0,0
2134,-1287.0,0
2135,-1284.0,0
2136,-1280.0,0
2137,-1275.0,0
2138,-1270.0,0
2139,-1268.0,0
2140,-1268.0,0
2141,-1270.0,0
2142,-1273.0,0
2143,-1277.0,0
2144,-1281.0,0
2145,-1285.0,0
2146,-1289.0,0
2147,-1293.0,0
2148,-1297.0,0
2149,-1301.0,0
2150,-1304.0,0
2151,-1305.0,0
2152,-1304.0,0
2153,-1301.0,0
2154,-1298.0,0
2155,-1296.0,0
2156,-1295.0,0
2157,-1295.0,0
2158,-1295.0,0
2159,-1295.0,0
2160,-1294.0,0
2161,-1293.0,0
2162,-1293.0,0
2163,-1296.0,0
2164,-1302.0,0
2165,-1310.0,0
2166,-1319.0,0
2167,-1327.0,0
2168,-1335.0,0
2169,-1342.0,0
2170,-1349.0,0
2171,-1355.0,0
2172,-1361.0,0
2173,-1367.0,0
2174,-1372.0,0
2175,-1377.0,0
2176,-1382.0,0
2177,-1387.0,0
2178,-1392.0,0
2179,-1398.0,0
2180,-1405.0,0
2181,-1413.0,0
2182,-1420.0,0
2183,-1425.0,0
2184,-1429.0,0
2185,-1431.0,0
2186,-1432.0,0
2187,-1432.0,0
2188,-1431.0,0
2189,-1430.0,0
2190,-1429.0,0
2191,-1428.0,0
2192,-1428.0,0
2193,-1428.0,0
2194,-1427.0,0
2195,-1423.0,0
2196,-1416.0,0
2197,-1407.0,0
2198,-1397.0,0
2199,-1388.0,0
2200,-1379.0,0
2201,-1371.0,0
2202,-1362.0,0
2203,-1353.0,0
2204,-1343.0,0
2205,-1333.0,0
2206,-1322.0,0
2207,-1309.0,0
2208,-1295.0,0
2209,-1280.0,0
2210,-1264.0,0
2211,-1248.0,0
2212,-1231.0,0
2213,-1213.0,0
2214,-1194.0,0
2215,-1172.0,0
2216,-1148.0,0
2217,-1122.0,0
2218,-1096.0,0
2219,-1071.0,0
2220,-1046.0,0
2221,-1022.0,0
2222,-997.0,0
2223,-970.0,0
2224,-942.0,0
2225,-912.0,0
2226,-882.0,0
2227,-854.0,0
2228,-827.0,0
2229,-801.0,0
2230,-775.0,0
2231,-749.0,0
2232,-722.0,0
2233,-695.0,0
2234,-668.0,0
2235,-640.0,0
2236,-612.0,0
2237,-584.0,0
2238,-556.0,0
2239,-528.0,0
2240,-500.0,0
2241,-472.0,0
2242,-445.0,0
2243,-420.0,0
2244,-397.0,0
2245,-376.0,0
2246,-356.0,0
2247,-335.0,0
2248,-313.0,0
2249,-290.0,0
2250,-266.0,0
2251,-242.0,0
2252,-217.0,0
2253,-192.0,0
2254,-166.0,0
2255,-140.0,0
2256,-114.0,0
2257,-87.0,0
2258,-60.0,0
2259,-31.0,0
2260,-1.0,0
2261,30.0,0
2262,60.0,0
2263,87.0,0
2264,112.0,0
2265,134.0,0
2266,156.0,0
2267,178.0,0
2268,201.0,0
2269,225.0,0
2270,248.0,0
2271,271.0,0
2272,293.0,0
2273,314.0,0
2274,337.0,0
2275,363.0,0
2276,392.0,0
2277,423.0,0
2278,454.0,0
2279,483.0,0
2280,511.0,0
2281,537.0,0
2282,562.0,0
2283,586.0,0
2284,609.0,0
2285,631.0,0
2286,652.0,0
2287,671.0,0
2288,689.0,0
2289,705.0,0
2290,719.0,0
2291,731.0,0
2292,741.0,0
2293,749.0,0
2294,758.0,0
2295,771.0,0
2296,787.0,0
2297,806.0,0
2298,825.0,0
2299,842.0,0
2300,858.0,0
2301,873.0,0
2302,888.0,0
2303,904.0,0
2304,921.0,0
2305,940.0,0
2306,958.0,0
2307,974.0,0
2308,989.0,0
2309,1003.0,0
2310,1018.0,0
2311,1036.0,0
2312,1056.0,0
2313,1078.0,0
2314,1100.0,0
2315,1120.0,0
2316,1138.0,0
2317,1154.0,0
2318,1168.0,0
2319,1178.0,0
2320,1185.0,0
2321,1189.0,0
2322,1191.0,0
2323,1191.0,0
2324,1189.0,0
2325,1186.0,0
2326,1180.0,0
2327,1171.0,0
2328,1158.0,0
2329,1142.0,0
2330,1124.0,0
2331,1104.0,0
2332,1082.0,0
2333,1059.0,0
2334,1034.0,0
2335,1008.0,0
2336,981.0,0
2337,953.0,0
2338,925.0,0
2339,898.0,0
2340,871.0,0
2341,844.0,0
2342,819.0,0
2343,795.0,0
2344,772.0,0
2345,751.0,0
2346,731.0,0
2347,711.0,0
2348,692.0,0
2349,674.0,0
2350,657.0,0
2351,642.0,0
2352,628.0,0
2353,616.0,0
2354,604.0,0
2355,592.0,0
2356,580.0,0
2357,568.0,0
2358,555.0,0
2359,541.0,0
2360,526.0,0
2361,510.0,0
2362,493.0,0
2363,477.0,0
2364,461.0,0
2365,446.0,0
2366,430.0,0
2367,414.0,0
2368,397.0,0
2369,379.0,0
2370,360.0,0
2371,339.0,0
2372,317.0,0
2373,293.0,0
2374,269.0,0
2375,247.0,0
2376,226.0,0
2377,206.0,0
2378,186.0,0
2379,164.0,0
2380,141.0,0
2381,117.0,0
2382,93.0,0
2383,71.0,0
2384,50.0,0
2385,30.0,0
2386,9.0,0
2387,-15.0,0
2388,-41.0,0
2389,-69.0,0
2390,-97.0,0
2391,-125.0,0
2392,-152.0,0
2393,-178.0,0
2394,-204.0,0
2395,-229.0,0
2396,-254.0,0
2397,-278.0,0
2398,-302.0,0
2399,-326.0,0
2400,-349.0,0
2401,-372.0,0
2402,-394.0,0
2403,-413.0,0
2404,-430.0,0
2405,-445.0,0
2406,-458.0,0
2407,-469.0,0
2408,-479.0,0
2409,-488.0,0
2410,-496.0,0
2411,-503.0,0
2412,-509.0,0
2413,-515.0,0
2414,-521.0,0
2415,-529.0,0
2416,-539.0,0
2417,-550.0,0
2418,-561.0,0
2419,-571.0,0
2420,-580.0,0
2421,-588.0,0
2422,-596.0,0
2423,-606.0,0
2424,-617.0,0
2425,-630.0,0
2426,-642.0,0
2427,-653.0,0
2428,-663.0,0
2429,-672.0,0
2430,-679.0,0
2431,-686.0,0
2432,-692.0,0
2433,-697.0,0
2434,-702.0,0
2435,-708.0,0
2436,-715.0,0
2437,-722.0,0
2438,-729.0,0
2439,-737.0,0
2440,-745.0,0
2441,-754.0,0
2442,-763.0,0
2443,-772.0,0
2444,-781.0,0
2445,-790.0,0
2446,-800.0,0
2447,-811.0,0
2448,-824.0,0
2449,-838.0,0
2450,-853.0,0
2451,-870.0,0
2452,-889.0,0
2453,-909.0,0
2454,-928.0,0
2455,-945.0,0
2456,-960.0,0
2457,-973.0,0
2458,-984.0,0
2459,-995.0,0
2460,-1006.0,0
2461,-1017.0,0
2462,-1027.0,0
2463,-1035.0,0
2464,-1042.0,0
2465,-1048.0,0
2466,-1053.0,0
2467,-1058.0,0
2468,-1062.0,0
2469,-1065.0,0
2470,-1068.0,0
2471,-1070.0,0
2472,-1072.0,0
2473,-1073.0,0
2474,-1074.0,0
2475,-1073.0,0
2476,-1071.0,0
2477,-1068.0,0
2478,-1066.0,0
2479,-1066.0,0
2480,-1069.0,0
2481,-1074.0,0
2482,-1079.0,0
2483,-1082.0,0
2484,-1083.0,0
2485,-1082.0,0
2486,-1082.0,0
2487,-1084.0,0
2488,-1088.0,0
2489,-1094.0,0
2490,-1101.0,0
2491,-1108.0,0
2492,-1115.0,0
2493,-1122.0,0
2494,-1130.0,0
2495,-1139.0,0
2496,-1149.0,0
2497,-1160.0,0
2498,-1171.0,0
2499,-1181.0,0
2500,-1191.0,0
2501,-1200.0,0
2502,-1209.0,0
2503,-1217.0,0
2504,-1225.0,0
2505,-1233.0,0
2506,-1240.0,0
2507,-1247.0,0
2508,-1254.0,0
2509,-1261.0,0
2510,-1269.0,0
2511,-1279.0,0
2512,-1290.0,0
2513,-1303.0,0
2514,-1317.0,0
2515,-1332.0,0
2516,-1348.0,0
2517,-1365.0,0
2518,-1380.0,0
2519,-1391.0,0
2520,-1399.0,0
2521,-1404.0,0
2522,-1407.0,0
2523,-1410.0,0
2524,-1413.0,0
2525,-1416.0,0
2526,-1419.0,0
2527,-1421.0,0
2528,-1421.0,0
2529,-1421.0,0
2530,-1420.0,0
2531,-1420.0,0
2532,-1420.0,0
2533,-1421.0,0
2534,-1421.0,0
2535,-1421.0,0
2536,-1420.0,0
2537,-1418.0,0
2538,-1416.0,0
2539,-1413.0,0
2540,-1410.0,0
2541,-1406.0,0
2542,-1402.0,0
2543,-1398.0,0
2544,-1394.0,0
2545,-1390.0,0
2546,-1385.0,0
2547,-1379.0,0
2548,-1372.0,0
2549,-1364.0,0
2550,-1356.0,0
2551,-1350.0,0
2552,-1345.0,0
2553,-1341.0,0
2554,-1336.0,0
2555,-1328.0,0
2556,-1316.0,0
2557,-1302.0,0
2558,-1288.0,0
2559,-1276.0,0
2560,-1267.0,0
2561,-1260.0,0
2562,-1253.0,0
2563,-1246.0,0
2564,-1238.0,0
2565,-1229.0,0
2566,-1221.0,0
2567,-1213.0,0
2568,-1206.0,0
2569,-1200.0,0
2570,-1195.0,0
2571,-1193.0,0
2572,-1194.0,0
2573,-1197.0,0
2574,-1200.0,0
2575,-1202.0,0
2576,-1204.0,0
2577,-1205.0,0
2578,-1205.0,0
2579,-1205.0,0
2580,-1205.0,0
2581,-1204.0,0
2582,-1202.0,0
2583,-1198.0,0
2584,-1191.0,0
2585,-1182.0,0
2586,-1173.0,0
2587,-1165.0,0
2588,-1158.0,0
2589,-1151.0,0
2590,-1145.0,0
2591,-1138.0,0
2592,-1131.0,0
2593,-1123.0,0
2594,-1116.0,0
2595,-1111.0,0
2596,-1108.0,0
2597,-1106.0,0
2598,-1105.0,0
2599,-1105.0,0
2600,-1107.0,0
2601,-1109.0,0
2602,-1112.0,0
2603,-1116.0,0
2604,-1120.0,0
2605,-1125.0,0
2606,-1129.0,0
2607,-1133.0,0
2608,-1136.0,0
2609,-1138.0,0
2610,-1140.0,0
2611,-1143.0,0
2612,-1146.0,0
2613,-1150.0,0
2614,-1153.0,0
2615,-1154.0,0
2616,-1154.0,0
2617,-1152.0,0
2618,-1150.0,0
2619,-1149.0,0
2620,-1149.0,0
2621,-1150.0,0
2622,-1152.0,0
2623,-1155.0,0
2624,-1158.0,0
2625,-1162.0,0
2626,-1166.0,0
2627,-1169.0,0
2628,-1171.0,0
2629,-1172.0,0
2630,-1175.0,0
2631,-1181.0,0
2632,-1189.0,0
2633,-1199.0,0
2634,-1210.0,0
2635,-1220.0,0
2636,-1230.0,0
2637,-1239.0,0
2638,-1248.0,0
2639,-1258.0,0
2640,-1269.0,0
2641,-1280.0,0
2642,-1289.0,0
2643,-1294.0,0
2644,-1295.0,0
2645,-1293.0,0
2646,-1290.0,0
2647,-1287.0,0
2648,-1283.0,0
2649,-1279.0,0
2650,-1276.0,0
2651,-1273.0,0
2652,-1269.0,0
2653,-1265.0,0
2654,-1262.0,0
2655,-1260.0,0
2656,-1259.0,0
2657,-1259.0,0
2658,-1260.0,0
2659,-1263.0,0
2660,-1268.0,0
2661,-1274.0,0
2662,-1280.0,0
2663,-1285.0,0
2664,-1288.0,0
2665,-1290.0,0
2666,-1292.0,0
2667,-1295.0,0
2668,-1298.0,0
2669,-1301.0,0
2670,-1303.0,0
2671,-1301.0,0
2672,-1297.0,0
2673,-1290.0,0
2674,-1282.0,0
2675,-1273.0,0
2676,-1264.0,0
2677,-1254.0,0
2678,-1243.0,0
2679,-1231.0,0
2680,-1218.0,0
2681,-1204.0,0
2682,-1188.0,0
2683,-1171.0,0
2684,-1152.0,0
2685,-1132.0,0
2686,-1111.0,0
2687,-1090.0,0
2688,-1069.0,0
2689,-1049.0,0
2690,-1028.0,0
2691,-1006.0,0
2692,-983.0,0
2693,-959.0,0
2694,-936.0,0
2695,-914.0,0
2696,-894.0,0
2697,-875.0,0
2698,-856.0,0
2699,-836.0,0
2700,-815.0,0
2701,-793.0,0
2702,-770.0,0
2703,-746.0,0
2704,-721.0,0
2705,-696.0,0
2706,-670.0,0
2707,-642.0,0
2708,-612.0,0
2709,-581.0,0
2710,-551.0,0
2711,-522.0,0
2712,-494.0,0
2713,-467.0,0
2714,-440.0,0
2715,-412.0,0
2716,-382.0,0
2717,-351.0,0
2718,-321.0,0
2719,-292.0,0
2720,-264.0,0
2721,-238.0,0
2722,-212.0,0
2723,-186.0,0
2724,-159.0,0
2725,-132.0,0
2726,-106.0,0
2727,-81.0,0
2728,-57.0,0
2729,-33.0,0
2730,-10.0,0
2731,12.0,0
2732,34.0,0
2733,55.0,0
2734,78.0,0
2735,104.0,0
2736,132.0,0
2737,163.0,0
2738,195.0,0
2739,226.0,0
2740,257.0,0
2741,287.0,0
2742,318.0,0
2743,351.0,0
2744,386.0,0
2745,423.0,0
2746,461.0,0
2747,500.0,0
2748,540.0,0
2749,581.0,0
2750,621.0,0
2751,660.0,0
2752,697.0,0
2753,733.0,0
2754,766.0,0
2755,796.0,0
2756,823.0,0
2757,847.0,0
2758,868.0,0
2759,886.0,0
2760,901.0,0
2761,914.0,0
2762,925.0,0
2763,936.0,0
2764,946.0,0
2765,956.0,0
2766,965.0,0
2767,974.0,0
2768,982.0,0
2769,990.0,0
2770,999.0,0
2771,1010.0,0
2772,1023.0,0
2773,1038.0,0
2774,1053.0,0
2775,1066.0,0
2776,1079.0,0
2777,1091.0,0
2778,1104.0,0
2779,1120.0,0
2780,1138.0,0
2781,1158.0,0
2782,1178.0,0
2783,1195.0,0
2784,1209.0,0
2785,1221.0,0
2786,1231.0,0
2787,1241.0,0
2788,1250.0,0
2789,1259.0,0
2790,1266.0,0
2791,1270.0,0
2792,1272.0,0
2793,1272.0,0
2794,1271.0,0
2795,1269.0,0
2796,1267.0,0
2797,1264.0,0
2798,1261.0,0
2799,1256.0,0
2800,1250.0,0
2801,1243.0,0
2802,1235.0,0
2803,1226.0,0
2804,1217.0,0
2805,1207.0,0
2806,1196.0,0
2807,1185.0,0
2808,1174.0,0
2809,1162.0,0
2810,1150.0,0
2811,1138.0,0
2812,1125.0,0
2813,1112.0,0
2814,1100.0,0
2815,1089.0,0
2816,1079.0,0
2817,1069.0,0
2818,1059.0,0
2819,1047.0,0
2820,1033.0,0
2821,1018.0,0
2822,1004.0,0
2823,992.0,0
2824,983.0,0
2825,976.0,0
2826,969.0,0
2827,961.0,0
2828,952.0,0
2829,943.0,0
2830,934.0,0
2831,926.0,0
2832,918.0,0
2833,910.0,0
2834,903.0,0
2835,897.0,0
2836,891.0,0
2837,885.0,0
2838,878.0,0
2839,869.0,0
2840,858.0,0
2841,845.0,0
2842,832.0,0
2843,819.0,0
2844,806.0,0
2845,793.0,0
2846,780.0,0
2847,767.0,0
2848,753.0,0
2849,739.0,0
2850,726.0,0
2851,713.0,0
2852,700.0,0
2853,686.0,0
2854,671.0,0
2855,654.0,0
2856,635.0,0
2857,614.0,0
2858,592.0,0
2859,568.0,0
2860,543.0,0
2861,517.0,0
2862,491.0,0
2863,465.0,0
2864,440.0,0
2865,415.0,0
2866,391.0,0
2867,368.0,0
2868,347.0,0
2869,327.0,0
2870,306.0,0
2871,284.0,0
2872,260.0,0
2873,235.0,0
2874,211.0,0
2875,190.0,0
2876,171.0,0
2877,154.0,0
2878,137.0,0
2879,119.0,0
2880,99.0,0
2881,77.0,0
2882,54.0,0
2883,32.0,0
2884,10.0,0
2885,-12.0,0
2886,-34.0,0
2887,-56.0,0
2888,-78.0,0
2889,-100.0,0
2890,-122.0,0
2891,-144.0,0
2892,-166.0,0
2893,-188.0,0
2894,-210.0,0
2895,-230.0,0
2896,-249.0,0
2897,-267.0,0
2898,-285.0,0
2899,-303.0,0
2900,-322.0,0
2901,-341.0,0
2902,-360.0,0
2903,-378.0,0
2904,-395.0,0
2905,-411.0,0
2906,-427.0,0
2907,-444.0,0
2908,-461.0,0
2909,-479.0,0
2910,-497.0,0
2911,-514.0,0
2912,-530.0,0
2913,-545.0,0
2914,-562.0,0
2915,-582.0,0
2916,-604.0,0
2917,-629.0,0
2918,-654.0,0
2919,-677.0,0
2920,-698.0,0
2921,-718.0,0
2922,-738.0,0
2923,-758.0,0
2924,-778.0,0
2925,-798.0,0
2926,-818.0,0
2927,-838.0,0
2928,-858.0,0
2929,-878.0,0
2930,-897.0,0
2931,-913.0,0
2932,-927.0,0
2933,-940.0,0
2934,-951.0,0
2935,-961.0,0
2936,-969.0,0
2937,-976.0,0
2938,-984.0,0
2939,-993.0,0
2940,-1003.0,0
2941,-1014.0,0
2942,-1027.0,0
2943,-1042.0,0
2944,-1058.0,0
2945,-1076.0,0
2946,-1093.0,0
2947,-1107.0,0
2948,-1119.0,0
2949,-1129.0,0
2950,-1139.0,0
2951,-1150.0,0
2952,-1161.0,0
2953,-1173.0,0
2954,-1186.0,0
2955,-1200.0,0
2956,-1216.0,0
2957,-1233.0,0
2958,-1249.0,0
2959,-1261.0,0
2960,-1269.0,0
2961,-1274.0,0
2962,-1279.0,0
2963,-1285.0,0
2964,-1292.0,0
2965,-1300.0,0
2966,-1308.0,0
2967,-1314.0,0
2968,-1319.0,0
2969,-1322.0,0
2970,-1325.0,0
2971,-1330.0,0
2972,-1336.0,0
2973,-1343.0,0
2974,-1349.0,0
2975,-1352.0,0
2976,-1353.0,0
2977,-1352.0,0
2978,-1350.0,0
2979,-1349.0,0
2980,-1349.0,0
2981,-1350.0,0
2982,-1350.0,0
2983,-1348.0,0
2984,-1344.0,0
2985,-1339.0,0
2986,-1334.0,0
2987,-1329.0,0
2988,-1324.0,0
2989,-1319.0,0
2990,-1314.0,0
2991,-1309.0,0
2992,-1304.0,0
2993,-1299.0,0
2994,-1295.0,0
2995,-1292.0,0
2996,-1290.0,0
2997,-1289.0,0
2998,-1289.0,0
2999,-1290.0,0
3000,-1291.0,0
3001,-1293.0,0
3002,-1295.0,0
3003,-1296.0,0
3004,-1296.0,0
3005,-1295.0,0
3006,-1296.0,0
3007,-1300.0,0
3008,-1306.0,0
3009,-1315.0,0
3010,-1324.0,0
3011,-1331.0,0
3012,-1336.0,0
3013,-1340.0,0
3014,-1343.0,0
3015,-1345.0,0
3016,-1346.0,0
3017,-1346.0,0
3018,-1346.0,0
3019,-1346.0,0
3020,-1347.0,0
3021,-1348.0,0
3022,-1350.0,0
3023,-1352.0,0
3024,-1354.0,0
3025,-1357.0,0
3026,-1359.0,0
3027,-1358.0,0
3028,-1356.0,0
3029,-1352.0,0
3030,-1347.0,0
3031,-1342.0,0
3032,-1337.0,0
3033,-1332.0,0
3034,-1328.0,0
3035,-1325.0,0
3036,-1323.0,0
3037,-1322.0,0
3038,-1320.0,0
3039,-1316.0,0
3040,-1309.0,0
3041,-1300.0,0
3042,-1291.0,0
3043,-1284.0,0
3044,-1278.0,0
3045,-1274.0,0
3046,-1270.0,0
3047,-1265.0,0
3048,-1259.0,0
3049,-1252.0,0
3050,-1245.0,0
3051,-1240.0,0
3052,-1237.0,0
3053,-1235.0,0
3054,-1233.0,0
3055,-1230.0,0
3056,-1225.0,0
3057,-1219.0,0
3058,-1214.0,0
3059,-1210.0,0
3060,-1208.0,0
3061,-1207.0,0
3062,-1207.0,0
3063,-1207.0,0
3064,-1208.0,0
3065,-1210.0,0
3066,-1213.0,0
3067,-1218.0,0
3068,-1224.0,0
3069,-1231.0,0
3070,-1238.0,0
3071,-1242.0,0
3072,-1244.0,0
3073,-1244.0,0
3074,-1242.0,0
3075,-1239.0,0
3076,-1235.0,0
3077,-1230.0,0
3078,-1224.0,0
3079,-1219.0,0
3080,-1214.0,0
3081,-1209.0,0
3082,-1204.0,0
3083,-1198.0,0
3084,-1192.0,0
3085,-1185.0,0
3086,-1178.0,0
3087,-1173.0,0
3088,-1170.0,0
3089,-1168.0,0
3090,-1167.0,0
3091,-1166.0,0
3092,-1165.0,0
3093,-1163.0,0
3094,-1161.0,0
3095,-1159.0,0
3096,-1157.0,0
3097,-1155.0,0
3098,-1154.0,0
3099,-1154.0,0
3100,-1155.0,0
3101,-1157.0,0
3102,-1159.0,0
3103,-1162.0,0
3104,-1166.0,0
3105,-1170.0,0
3106,-1174.0,0
3107,-1178.0,0
3108,-1183.0,0
3109,-1188.0,0
3110,-1193.0,0
3111,-1197.0,0
3112,-1200.0,0
3113,-1202.0,0
3114,-1204.0,0
3115,-1208.0,0
3116,-1214.0,0
3117,-1221.0,0
3118,-1227.0,0
3119,-1231.0,0
3120,-1233.0,0
3121,-1233.0,0
3122,-1232.0,0
3123,-1232.0,0
3124,-1233.0,0
3125,-1235.0,0
3126,-1237.0,0
3127,-1239.0,0
3128,-1242.0,0
3129,-1245.0,0
3130,-1249.0,0
3131,-1253.0,0
3132,-1257.0,0
3133,-1261.0,0
3134,-1264.0,0
3135,-1263.0,0
3136,-1260.0,0
3137,-1254.0,0
3138,-1247.0,0
3139,-1239.0,0
3140,-1230.0,0
3141,-1221.0,0
3142,-1212.0,0
3143,-1202.0,0
3144,-1192.0,0
3145,-1182.0,0
3146,-1171.0,0
3147,-1159.0,0
3148,-1146.0,0
3149,-1132.0,0
3150,-1117.0,0
3151,-1102.0,0
3152,-1086.0,0
3153,-1070.0,0
3154,-1053.0,0
3155,-1034.0,0
3156,-1014.0,0
3157,-992.0,0
3158,-971.0,0
3159,-951.0,0
3160,-932.0,0
3161,-915.0,0
3162,-897.0,0
3163,-878.0,0
3164,-857.0,0
3165,-835.0,0
3166,-814.0,0
3167,-794.0,0
3168,-776.0,0
3169,-759.0,0
3170,-741.0,0
3171,-720.0,0
3172,-697.0,0
3173,-672.0,0
3174,-647.0,0
3175,-624.0,0
3176,-603.0,0
3177,-583.0,0
3178,-563.0,0
3179,-540.0,0
3180,-515.0,0
3181,-488.0,0
3182,-461.0,0
3183,-435.0,0
3184,-410.0,0
3185,-386.0,0
3186,-363.0,0
3187,-342.0,0
3188,-323.0,0
3189,-305.0,0
3190,-286.0,0
3191,-263.0,0
3192,-237.0,0
3193,-208.0,0
3194,-178.0,0
3195,-150.0,0
3196,-123.0,0
3197,-97.0,0
3198,-72.0,0
3199,-46.0,0
3200,-20.0,0
3201,6.0,0
3202,32.0,0
3203,57.0,0
3204,81.0,0
3205,104.0,0
3206,128.0,0
3207,155.0,0
3208,185.0,0
3209,217.0,0
3210,249.0,0
3211,279.0,0
3212,308.0,0
3213,335.0,0
3214,361.0,0
3215,388.0,0
3216,415.0,0
3217,442.0,0
3218,469.0,0
3219,497.0,0
3220,527.0,0
3221,557.0,0
3222,586.0,0
3223,613.0,0
3224,637.0,0
3225,659.0,0
3226,681.0,0
3227,706.0,0
3228,734.0,0
3229,765.0,0
3230,796.0,0
3231,827.0,0
3232,857.0,0
3233,887.0,0
3234,915.0,0
3235,940.0,0
3236,963.0,0
3237,984.0,0
3238,1003.0,0
3239,1022.0,0
3240,1040.0,0
3241,1058.0,0
3242,1076.0,0
3243,1095.0,0
3244,1115.0,0
3245,1136.0,0
3246,1156.0,0
3247,1174.0,0
3248,1191.0,0
3249,1206.0,0
3250,1221.0,0
3251,1238.0,0
3252,1256.0,0
3253,1275.0,0
3254,1292.0,0
3255,1305.0,0
3256,1315.0,0
3257,1322.0,0
3258,1327.0,0
3259,1330.0,0
3260,1332.0,0
3261,1333.0,0
3262,1333.0,0
3263,1330.0,0
3264,1324.0,0
3265,1315.0,0
3266,1304.0,0
3267,1292.0,0
3268,1278.0,0
3269,1263.0,0
3270,1247.0,0
3271,1230.0,0
3272,1212.0,0
3273,1193.0,0
3274,1173.0,0
3275,1153.0,0
3276,1132.0,0
3277,1111.0,0
3278,1090.0,0
3279,1072.0,0
3280,1055.0,0
3281,1040.0,0
3282,1025.0,0
3283,1009.0,0
3284,992.0,0
3285,974.0,0
3286,956.0,0
3287,939.0,0
3288,922.0,0
3289,905.0,0
3290,887.0,0
3291,867.0,0
3292,846.0,0
3293,823.0,0
3294,799.0,0
3295,774.0,0
3296,747.0,0
3297,719.0,0
3298,693.0,0
3299,670.0,0
3300,649.0,0
3301,630.0,0
3302,613.0,0
3303,596.0,0
3304,580.0,0
3305,564.0,0
3306,549.0,0
3307,535.0,0
3308,523.0,0
3309,512.0,0
3310,499.0,0
3311,483.0,0
3312,463.0,0
3313,440.0,0
3314,416.0,0
3315,392.0,0
3316,368.0,0
3317,344.0,0
3318,320.0,0
3319,295.0,0
3320,269.0,0
3321,242.0,0
3322,215.0,0
3323,189.0,0
3324,163.0,0
3325,138.0,0
3326,113.0,0
3327,88.0,0
3328,64.0,0
3329,40.0,0
3330,17.0,0
3331,-5.0,0
3332,-25.0,0
3333,-45.0,0
3334,-63.0,0
3335,-79.0,0
3336,-93.0,0
3337,-106.0,0
3338,-119.0,0
3339,-134.0,0
3340,-151.0,0
3341,-170.0,0
3342,-189.0,0
3343,-206.0,0
3344,-221.0,0
3345,-234.0,0
3346,-246.0,0
3347,-258.0,0
3348,-270.0,0
3349,-282.0,0
3350,-294.0,0
3351,-304.0,0
3352,-313.0,0
3353,-321.0,0
3354,-330.0,0
3355,-340.0,0
3356,-352.0,0
3357,-365.0,0
3358,-377.0,0
3359,-387.0,0
3360,-394.0,0
3361,-399.0,0
3362,-404.0,0
3363,-411.0,0
3364,-420.0,0
3365,-431.0,0
3366,-442.0,0
3367,-453.0,0
3368,-464.0,0
3369,-475.0,0
3370,-486.0,0
3371,-497.0,0
3372,-508.0,0
3373,-519.0,0
3374,-532.0,0
3375,-549.0,0
3376,-569.0,0
3377,-592.0,0
3378,-614.0,0
3379,-634.0,0
3380,-651.0,0
3381,-666.0,0
3382,-680.0,0
3383,-694.0,0
3384,-707.0,0
3385,-720.0,0
3386,-731.0,0
3387,-740.0,0
3388,-747.0,0
3389,-751.0,0
3390,-755.0,0
3391,-760.0,0
3392,-765.0,0
3393,-771.0,0
3394,-778.0,0
3395,-787.0,0
3396,-797.0,0
3397,-809.0,0
3398,-822.0,0
3399,-836.0,0
3400,-851.0,0
3401,-866.0,0
3402,-881.0,0
3403,-894.0,0
3404,-905.0,0
3405,-915.0,0
3406,-924.0,0
3407,-933.0,0
3408,-943.0,0
3409,-953.0,0
3410,-963.0,0
3411,-974.0,0
3412,-987.0,0
3413,-1001.0,0
3414,-1014.0,0
3415,-1027.0,0
3416,-1039.0,0
3417,-1051.0,0
3418,-1063.0,0
3419,-1075.0,0
3420,-1088.0,0
3421,-1102.0,0
3422,-1114.0,0
3423,-1123.0,0
3424,-1130.0,0
3425,-1134.0,0
3426,-1136.0,0
3427,-1137.0,0
3428,-1136.0,0
3429,-1134.0,0
3430,-1130.0,0
3431,-1126.0,0
3432,-1121.0,0
3433,-1115.0,0
3434,-1110.0,0
3435,-1108.0,0
3436,-1109.0,0
3437,-1112.0,0
3438,-1116.0,0
3439,-1119.0,0
3440,-1121.0,0
3441,-1123.0,0
3442,-1124.0,0
3443,-1125.0,0
3444,-1126.0,0
3445,-1126.0,0
3446,-1127.0,0
3447,-1128.0,0
3448,-1130.0,0
3449,-1133.0,0
3450,-1136.0,0
3451,-1138.0,0
3452,-1140.0,0
3453,-1141.0,0
3454,-1143.0,0
3455,-1147.0,0
3456,-1153.0,0
3457,-1160.0,0
3458,-1168.0,0
3459,-1177.0,0
3460,-1187.0,0
3461,-1198.0,0
3462,-1209.0,0
3463,-1219.0,0
3464,-1228.0,0
3465,-1237.0,0
3466,-1245.0,0
3467,-1251.0,0
3468,-1256.0,0
3469,-1260.0,0
3470,-1264.0,0
3471,-1269.0,0
3472,-1276.0,0
3473,-1284.0,0
3474,-1292.0,0
3475,-1299.0,0
3476,-1306.0,0
3477,-1313.0,0
3478,-1319.0,0
3479,-1323.0,0
3480,-1326.0,0
3481,-1328.0,0
3482,-1330.0,0
3483,-1332.0,0
3484,-1334.0,0
3485,-1337.0,0
3486,-1339.0,0
3487,-1339.0,0
3488,-1337.0,0
3489,-1333.0,0
3490,-1328.0,0
3491,-1324.0,0
3492,-1320.0,0
3493,-1315.0,0
3494,-1311.0,0
3495,-1308.0,0
3496,-1306.0,0
3497,-1305.0,0
3498,-1304.0,0
3499,-1303.0,0
3500,-1302.0,0
3501,-1300.0,0
3502,-1296.0,0
3503,-1289.0,0
3504,-1278.0,0
3505,-1264.0,0
3506,-1251.0,0
3507,-1240.0,0
3508,-1231.0,0
3509,-1225.0,0
3510,-1218.0,0
3511,-1210.0,0
3512,-1200.0,0
3513,-1188.0,0
3514,-1177.0,0
3515,-1167.0,0
3516,-1158.0,0
3517,-1150.0,0
3518,-1143.0,0
3519,-1138.0,0
3520,-1135.0,0
3521,-1133.0,0
3522,-1132.0,0
3523,-1131.0,0
3524,-1130.0,0
3525,-1129.0,0
3526,-1126.0,0
3527,-1121.0,0
3528,-1114.0,0
3529,-1106.0,0
3530,-1097.0,0
3531,-1089.0,0
3532,-1082.0,0
3533,-1076.0,0
3534,-1071.0,0
3535,-1067.0,0
3536,-1063.0,0
3537,-1059.0,0
3538,-1056.0,0
3539,-1053.0,0
3540,-1051.0,0
3541,-1049.0,0
3542,-1047.0,0
3543,-1045.0,0
3544,-1044.0,0
3545,-1043.0,0
3546,-1042.0,0
3547,-1041.0,0
3548,-1040.0,0
3549,-1039.0,0
3550,-1038.0,0
3551,-1037.0,0
3552,-1036.0,0
3553,-1035.0,0
3554,-1034.0,0
3555,-1034.0,0
3556,-1034.0,0
3557,-1033.0,0
3558,-1034.0,0
3559,-1037.0,0
3560,-1042.0,0
3561,-1049.0,0
3562,-1056.0,0
3563,-1062.0,0
3564,-1067.0,0
3565,-1071.0,0
3566,-1074.0,0
3567,-1075.0,0
3568,-1075.0,0
3569,-1073.0,0
3570,-1072.0,0
3571,-1074.0,0
3572,-1078.0,0
3573,-1084.0,0
3574,-1089.0,0
3575,-1092.0,0
3576,-1094.0,0
3577,-1094.0,0
3578,-1094.0,0
3579,-1097.0,0
3580,-1101.0,0
3581,-1107.0,0
3582,-1113.0,0
3583,-1118.0,0
3584,-1123.0,0
3585,-1127.0,0
3586,-1130.0,0
3587,-1134.0,0
3588,-1138.0,0
3589,-1143.0,0
3590,-1148.0,0
3591,-1153.0,0
3592,-1159.0,0
3593,-1165.0,0
3594,-1170.0,0
3595,-1174.0,0
3596,-1177.0,0
3597,-1180.0,0
3598,-1182.0,0
3599,-1185.0,0
3600,-1188.0,0
3601,-1192.0,0
3602,-1196.0,0
3603,-1199.0,0
3604,-1201.0,0
3605,-1202.0,0
3606,-1203.0,0
3607,-1203.0,0
3608,-1203.0,0
3609,-1203.0,0
3610,-1201.0,0
3611,-1197.0,0
3612,-1190.0,0
3613,-1181.0,0
3614,-1172.0,0
3615,-1162.0,0
3616,-1152.0,0
3617,-1142.0,0
3618,-1132.0,0
3619,-1122.0,0
3620,-1112.0,0
3621,-1102.0,0
3622,-1092.0,0
3623,-1081.0,0
3624,-1069.0,0
3625,-1056.0,0
3626,-1043.0,0
3627,-1030.0,0
3628,-1017.0,0
3629,-1005.0,0
3630,-992.0,0
3631,-977.0,0
3632,-960.0,0
3633,-941.0,0
3634,-922.0,0
3635,-903.0,0
3636,-883.0,0
3637,-863.0,0
3638,-842.0,0
3639,-819.0,0
3640,-794.0,0
3641,-767.0,0
3642,-740.0,0
3643,-716.0,0
3644,-693.0,0
3645,-672.0,0
3646,-651.0,0
3647,-628.0,0
3648,-602.0,0
3649,-575.0,0
3650,-549.0,0
3651,-526.0,0
3652,-506.0,0
3653,-489.0,0
3654,-471.0,0
3655,-449.0,0
3656,-424.0,0
3657,-396.0,0
3658,-366.0,0
3659,-337.0,0
3660,-308.0,0
3661,-279.0,0
3662,-248.0,0
3663,-214.0,0
3664,-176.0,0
3665,-136.0,0
3666,-95.0,0
3667,-54.0,0
3668,-13.0,0
3669,27.0,0
3670,66.0,0
3671,104.0,0
3672,140.0,0
3673,175.0,0
3674,210.0,0
3675,245.0,0
3676,281.0,0
3677,317.0,0
3678,352.0,0
3679,384.0,0
3680,415.0,0
3681,444.0,0
3682,474.0,0
3683,507.0,0
3684,543.0,0
3685,582.0,0
3686,622.0,0
3687,661.0,0
3688,700.0,0
3689,739.0,0
3690,776.0,0
3691,809.0,0
3692,838.0,0
3693,864.0,0
3694,888.0,0
3695,909.0,0
3696,929.0,0
3697,947.0,0
3698,965.0,0
3699,986.0,0
3700,1008.0,0
3701,1032.0,0
3702,1058.0,0
3703,1087.0,0
3704,1118.0,0
3705,1151.0,0
3706,1185.0,0
3707,1219.0,0
3708,1253.0,0
3709,1287.0,0
3710,1322.0,0
3711,1357.0,0
3712,1392.0,0
3713,1427.0,0
3714,1460.0,0
3715,1491.0,0
3716,1520.0,0
3717,1547.0,0
3718,1573.0,0
3719,1599.0,0
3720,1625.0,0
3721,1651.0,0
3722,1673.0,0
3723,1688.0,0
3724,1696.0,0
3725,1699.0,0
3726,1698.0,0
3727,1696.0,0
3728,1692.0,0
3729,1686.0,0
3730,1679.0,0
3731,1669.0,0
3732,1657.0,0
3733,1644.0,0
3734,1629.0,0
3735,1613.0,0
3736,1596.0,0
3737,1578.0,0
3738,1557.0,0
3739,1532.0,0
3740,1503.0,0
3741,1470.0,0
3742,1435.0,0
3743,1399.0,0
3744,1362.0,0
3745,1324.0,0
3746,1286.0,0
3747,1248.0,0
3748,1211.0,0
3749,1174.0,0
3750,1138.0,0
3751,1103.0,0
3752,1070.0,0
3753,1038.0,0
3754,1008.0,0
3755,981.0,0
3756,957.0,0
3757,936.0,0
3758,917.0,0
3759,900.0,0
3760,885.0,0
3761,871.0,0
3762,858.0,0
3763,846.0,0
3764,835.0,0
3765,825.0,0
3766,816.0,0
3767,808.0,0
3768,800.0,0
3769,793.0,0
3770,786.0,0
3771,780.0,0
3772,774.0,0
3773,768.0,0
3774,762.0,0
3775,755.0,0
3776,747.0,0
3777,739.0,0
3778,731.0,0
3779,723.0,0
3780,716.0,0
3781,709.0,0
3782,703.0,0
3783,697.0,0
3784,691.0,0
3785,685.0,0
3786,679.0,0
3787,672.0,0
3788,665.0,0
3789,657.0,0
3790,647.0,0
3791,636.0,0
3792,623.0,0
3793,609.0,0
3794,594.0,0
3795,580.0,0
3796,566.0,0
3797,552.0,0
3798,538.0,0
3799,524.0,0
3800,510.0,0
3801,496.0,0
3802,481.0,0
3803,464.0,0
3804,445.0,0
3805,424.0,0
3806,402.0,0
3807,380.0,0
3808,358.0,0
3809,336.0,0
3810,316.0,0
3811,299.0,0
3812,285.0,0
3813,274.0,0
3814,264.0,0
3815,254.0,0
3816,243.0,0
3817,232.0,0
3818,222.0,0
3819,214.0,0
3820,208.0,0
3821,204.0,0
3822,200.0,0
3823,195.0,0
3824,189.0,0
3825,182.0,0
3826,175.0,0
3827,169.0,0
3828,163.0,0
3829,158.0,0
3830,152.0,0
3831,144.0,0
3832,134.0,0
3833,122.0,0
3834,110.0,0
3835,100.0,0
3836,91.0,0
3837,82.0,0
3838,73.0,0
3839,62.0,0
3840,50.0,0
3841,37.0,0
3842,24.0,0
3843,12.0,0
3844,1.0,0
3845,-8.0,0
3846,-18.0,0
3847,-29.0,0
3848,-42.0,0
3849,-56.0,0
3850,-71.0,0
3851,-87.0,0
3852,-103.0,0
3853,-120.0,0
3854,-137.0,0
3855,-153.0,0
3856,-169.0,0
3857,-184.0,0
3858,-200.0,0
3859,-216.0,0
3860,-233.0,0
3861,-251.0,0
3862,-270.0,0
3863,-290.0,0
3864,-312.0,0
3865,-335.0,0
3866,-360.0,0
3867,-387.0,0
3868,-416.0,0
3869,-446.0,0
3870,-475.0,0
3871,-500.0,0
3872,-522.0,0
3873,-542.0,0
3874,-561.0,0
3875,-580.0,0
3876,-599.0,0
3877,-618.0,0
3878,-638.0,0
3879,-658.0,0
3880,-678.0,0
3881,-698.0,0
3882,-718.0,0
3883,-738.0,0
3884,-758.0,0
3885,-778.0,0
3886,-797.0,0
3887,-814.0,0
3888,-829.0,0
3889,-842.0,0
3890,-854.0,0
3891,-867.0,0
3892,-881.0,0
3893,-896.0,0
3894,-911.0,0
3895,-924.0,0
3896,-935.0,0
3897,-945.0,0
3898,-955.0,0
3899,-966.0,0
3900,-978.0,0
3901,-991.0,0
3902,-1004.0,0
3903,-1015.0,0
3904,-1024.0,0
3905,-1032.0,0
3906,-1039.0,0
3907,-1045.0,0
3908,-1050.0,0
3909,-1054.0,0
3910,-1059.0,0
3911,-1066.0,0
3912,-1074.0,0
3913,-1083.0,0
3914,-1092.0,0
3915,-1100.0,0
3916,-1106.0,0
3917,-1111.0,0
3918,-1116.0,0
3919,-1121.0,0
3920,-1127.0,0
3921,-1133.0,0
3922,-1139.0,0
3923,-1144.0,0
3924,-1148.0,0
3925,-1151.0,0
3926,-1154.0,0
3927,-1159.0,0
3928,-1165.0,0
3929,-1173.0,0
3930,-1181.0,0
3931,-1187.0,0
3932,-1192.0,0
3933,-1196.0,0
3934,-1199.0,0
3935,-1201.0,0
3936,-1203.0,0
3937,-1204.0,0
3938,-1205.0,0
3939,-1205.0,0
3940,-1205.0,0
3941,-1204.0,0
3942,-1203.0,0
3943,-1202.0,0
3944,-1201.0,0
3945,-1199.0,0
3946,-1198.0,0
3947,-1198.0,0
3948,-1199.0,0
3949,-1200.0,0
3950,-1201.0,0
3951,-1200.0,0
3952,-1198.0,0
3953,-1194.0,0
3954,-1191.0,0
3955,-1191.0,0
3956,-1193.0,0
3957,-1197.0,0
3958,-1200.0,0
3959,-1202.0,0
3960,-1202.0,0
3961,-1200.0,0
3962,-1197.0,0
3963,-1194.0,0
3964,-1191.0,0
3965,-1188.0,0
3966,-1186.0,0
3967,-1184.0,0
3968,-1182.0,0
3969,-1179.0,0
3970,-1177.0,0
3971,-1176.0,0
3972,-1176.0,0
3973,-1177.0,0
3974,-1178.0,0
3975,-1179.0,0
3976,-1180.0,0
3977,-1180.0,0
3978,-1180.0,0
3979,-1179.0,0
3980,-1178.0,0
3981,-1177.0,0
3982,-1178.0,0
3983,-1182.0,0
3984,-1189.0,0
3985,-1198.0,0
3986,-1208.0,0
3987,-1219.0,0
3988,-1231.0,0
3989,-1243.0,0
3990,-1255.0,0
3991,-1267.0,0
3992,-1280.0,0
3993,-1293.0,0
3994,-1305.0,0
3995,-1315.0,0
3996,-1323.0,0
3997,-1329.0,0
3998,-1335.0,0
3999,-1341.0,0
4000,-1348.0,0
4001,-1356.0,0
4002,-1364.0,0
4003,-1372.0,0
4004,-1379.0,0
4005,-1386.0,0
4006,-1392.0,0
4007,-1396.0,0
4008,-1399.0,0
4009,-1400.0,0
4010,-1402.0,0
4011,-1405.0,0
4012,-1409.0,0
4013,-1415.0,0
4014,-1420.0,0
4015,-1422.0,0
4016,-1422.0,0
4017,-1420.0,0
4018,-1417.0,0
4019,-1413.0,0
4020,-1409.0,0
4021,-1405.0,0
4022,-1400.0,0
4023,-1394.0,0
4024,-1387.0,0
4025,-1379.0,0
4026,-1372.0,0
4027,-1367.0,0
4028,-1365.0,0
4029,-1365.0,0
4030,-1365.0,0
4031,-1363.0,0
4032,-1359.0,0
4033,-1354.0,0
4034,-1350.0,0
4035,-1348.0,0
4036,-1348.0,0
4037,-1350.0,0
4038,-1352.0,0
4039,-1352.0,0
4040,-1350.0,0
4041,-1346.0,0
4042,-1341.0,0
4043,-1336.0,0
4044,-1331.0,0
4045,-1326.0,0
4046,-1323.0,0
4047,-1324.0,0
4048,-1328.0,0
4049,-1334.0,0
4050,-1340.0,0
4051,-1343.0,0
4052,-1344.0,0
4053,-1343.0,0
4054,-1340.0,0
4055,-1336.0,0
4056,-1331.0,0
4057,-1324.0,0
4058,-1317.0,0
4059,-1309.0,0
4060,-1300.0,0
4061,-1291.0,0
4062,-1282.0,0
4063,-1274.0,0
4064,-1266.0,0
4065,-1259.0,0
4066,-1251.0,0
4067,-1241.0,0
4068,-1230.0,0
4069,-1217.0,0
4070,-1205.0,0
4071,-1194.0,0
4072,-1184.0,0
4073,-1175.0,0
4074,-1167.0,0
4075,-1158.0,0
4076,-1149.0,0
4077,-1140.0,0
4078,-1131.0,0
4079,-1121.0,0
4080,-1111.0,0
4081,-1101.0,0
4082,-1091.0,0
4083,-1082.0,0
4084,-1072.0,0
4085,-1063.0,0
4086,-1054.0,0
4087,-1046.0,0
4088,-1039.0,0
4089,-1033.0,0
4090,-1027.0,0
4091,-1021.0,0
4092,-1014.0,0
4093,-1007.0,0
4094,-997.0,0
4095,-982.0,0
4096,-963.0,0
4097,-940.0,0
4098,-915.0,0
4099,-891.0,0
4100,-868.0,0
4101,-845.0,0
4102,-823.0,0
4103,-801.0,0
4104,-779.0,0
4105,-758.0,0
4106,-737.0,0
4107,-718.0,0
4108,-700.0,0
4109,-683.0,0
4110,-667.0,0
4111,-650.0,0
4112,-633.0,0
4113,-616.0,0
4114,-599.0,0
4115,-583.0,0
4116,-568.0,0
4117,-554.0,0
4118,-538.0,0
4119,-518.0,0
4120,-494.0,0
4121,-467.0,0
4122,-439.0,0
4123,-412.0,0
4124,-386.0,0
4125,-361.0,0
4126,-337.0,0
4127,-312.0,0
4128,-287.0,0
4129,-261.0,0
4130,-235.0,0
4131,-209.0,0
4132,-182.0,0
4133,-155.0,0
4134,-129.0,0
4135,-104.0,0
4136,-80.0,0
4137,-56.0,0
4138,-31.0,0
4139,-3.0,0
4140,27.0,0
4141,60.0,0
4142,94.0,0
4143,128.0,0
4144,163.0,0
4145,198.0,0
4146,233.0,0
4147,269.0,0
4148,305.0,0
4149,341.0,0
4150,378.0,0
4151,418.0,0
4152,460.0,0
4153,504.0,0
4154,548.0,0
4155,590.0,0
4156,630.0,0
4157,668.0,0
4158,704.0,0
4159,738.0,0
4160,769.0,0
4161,798.0,0
4162,825.0,0
4163,848.0,0
4164,867.0,0
4165,883.0,0
4166,899.0,0
4167,918.0,0
4168,939.0,0
4169,962.0,0
4170,984.0,0
4171,1001.0,0
4172,1014.0,0
4173,1024.0,0
4174,1032.0,0
4175,1039.0,0
4176,1046.0,0
4177,1053.0,0
4178,1060.0,0
4179,1067.0,0
4180,1074.0,0
4181,1081.0,0
4182,1089.0,0
4183,1099.0,0
4184,1111.0,0
4185,1125.0,0
4186,1138.0,0
4187,1149.0,0
4188,1158.0,0
4189,1166.0,0
4190,1173.0,0
4191,1179.0,0
4192,1185.0,0
4193,1191.0,0
4194,1197.0,0
4195,1201.0,0
4196,1204.0,0
4197,1206.0,0
4198,1208.0,0
4199,1209.0,0
4200,1209.0,0
4201,1208.0,0
4202,1207.0,0
4203,1206.0,0
4204,1204.0,0
4205,1202.0,0
4206,1197.0,0
4207,1187.0,0
4208,1173.0,0
4209,1155.0,0
4210,1135.0,0
4211,1116.0,0
4212,1098.0,0
4213,1080.0,0
4214,1062.0,0
4215,1043.0,0
4216,1024.0,0
4217,1004.0,0
4218,984.0,0
4219,963.0,0
4220,942.0,0
4221,920.0,0
4222,899.0,0
4223,881.0,0
4224,864.0,0
4225,849.0,0
4226,835.0,0
4227,821.0,0
4228,807.0,0
4229,793.0,0
4230,779.0,0
4231,765.0,0
4232,751.0,0
4233,737.0,0
4234,723.0,0
4235,708.0,0
4236,691.0,0
4237,674.0,0
4238,656.0,0
4239,639.0,0
4240,623.0,0
4241,607.0,0
4242,589.0,0
4243,568.0,0
4244,544.0,0
4245,518.0,0
4246,492.0,0
4247,468.0,0
4248,445.0,0
4249,423.0,0
4250,401.0,0
4251,378.0,0
4252,353.0,0
4253,327.0,0
4254,301.0,0
4255,276.0,0
4256,251.0,0
4257,226.0,0
4258,202.0,0
4259,180.0,0
4260,159.0,0
4261,139.0,0
4262,119.0,0
4263,99.0,0
4264,79.0,0
4265,58.0,0
4266,37.0,0
4267,16.0,0
4268,-5.0,0
4269,-26.0,0
4270,-47.0,0
4271,-66.0,0
4272,-84.0,0
4273,-102.0,0
4274,-118.0,0
4275,-132.0,0
4276,-145.0,0
4277,-157.0,0
4278,-169.0,0
4279,-182.0,0
4280,-196.0,0
4281,-211.0,0
4282,-225.0,0
4283,-238.0,0
4284,-249.0,0
4285,-259.0,0
4286,-269.0,0
4287,-281.0,0
4288,-294.0,0
4289,-308.0,0
4290,-323.0,0
4291,-339.0,0
4292,-356.0,0
4293,-373.0,0
4294,-391.0,0
4295,-409.0,0
4296,-427.0,0
4297,-446.0,0
4298,-466.0,0
4299,-487.0,0
4300,-509.0,0
4301,-533.0,0
4302,-557.0,0
4303,-580.0,0
4304,-603.0,0
4305,-626.0,0
4306,-649.0,0
4307,-671.0,0
4308,-693.0,0
4309,-715.0,0
4310,-737.0,0
4311,-760.0,0
4312,-785.0,0
4313,-810.0,0
4314,-834.0,0
4315,-855.0,0
4316,-874.0,0
4317,-890.0,0
4318,-905.0,0
4319,-919.0,0
4320,-933.0,0
4321,-946.0,0
4322,-959.0,0
4323,-971.0,0
4324,-983.0,0
4325,-994.0,0
4326,-1005.0,0
4327,-1014.0,0
4328,-1022.0,0
4329,-1029.0,0
4330,-1036.0,0
4331,-1044.0,0
4332,-1054.0,0
4333,-1065.0,0
4334,-1075.0,0
4335,-1084.0,0
4336,-1091.0,0
4337,-1097.0,0
4338,-1103.0,0
4339,-1109.0,0
4340,-1115.0,0
4341,-1121.0,0
4342,-1127.0,0
4343,-1132.0,0
4344,-1136.0,0
4345,-1139.0,0
4346,-1142.0,0
4347,-1146.0,0
4348,-1150.0,0
4349,-1155.0,0
4350,-1160.0,0
4351,-1167.0,0
4352,-1175.0,0
4353,-1184.0,0
4354,-1194.0,0
4355,-1204.0,0
4356,-1215.0,0
4357,-1227.0,0
4358,-1239.0,0
4359,-1251.0,0
4360,-1264.0,0
4361,-1277.0,0
4362,-1288.0,0
4363,-1296.0,0
4364,-1301.0,0
4365,-1304.0,0
4366,-1306.0,0
4367,-1310.0,0
4368,-1315.0,0
4369,-1321.0,0
4370,-1328.0,0
4371,-1334.0,0
4372,-1340.0,0
4373,-1346.0,0
4374,-1351.0,0
4375,-1355.0,0
4376,-1357.0,0
4377,-1358.0,0
4378,-1359.0,0
4379,-1359.0,0
4380,-1358.0,0
4381,-1357.0,0
4382,-1356.0,0
4383,-1355.0,0
4384,-1355.0,0
4385,-1355.0,0
4386,-1356.0,0
4387,-1357.0,0
4388,-1359.0,0
4389,-1361.0,0
4390,-1363.0,0
4391,-1365.0,0
4392,-1368.0,0
4393,-1371.0,0
4394,-1373.0,0
4395,-1374.0,0
4396,-1374.0,0
4397,-1374.0,0
4398,-1373.0,0
4399,-1372.0,0
4400,-1370.0,0
4401,-1367.0,0
4402,-1365.0,0
4403,-1363.0,0
4404,-1362.0,0
4405,-1362.0,0
4406,-1361.0,0
4407,-1359.0,0
4408,-1355.0,0
4409,-1350.0,0
4410,-1344.0,0
4411,-1338.0,0
4412,-1332.0,0
4413,-1327.0,0
4414,-1322.0,0
4415,-1319.0,0
4416,-1317.0,0
4417,-1316.0,0
4418,-1315.0,0
4419,-1315.0,0
4420,-1316.0,0
4421,-1317.0,0
4422,-1319.0,0
4423,-1321.0,0
4424,-1323.0,0
4425,-1326.0,0
4426,-1329.0,0
4427,-1334.0,0
4428,-1340.0,0
4429,-1347.0,0
4430,-1355.0,0
4431,-1363.0,0
4432,-1372.0,0
4433,-1381.0,0
4434,-1390.0,0
4435,-1397.0,0
4436,-1402.0,0
4437,-1405.0,0
4438,-1408.0,0
4439,-1411.0,0
4440,-1414.0,0
4441,-1417.0,0
4442,-1419.0,0
4443,-1418.0,0
4444,-1416.0,0
4445,-1412.0,0
4446,-1408.0,0
4447,-1406.0,0
4448,-1406.0,0
4449,-1408.0,0
4450,-1410.0,0
4451,-1411.0,0
4452,-1411.0,0
4453,-1410.0,0
4454,-1409.0,0
4455,-1407.0,0
4456,-1405.0,0
4457,-1402.0,0
4458,-1398.0,0
4459,-1393.0,0
4460,-1387.0,0
4461,-1380.0,0
4462,-1372.0,0
4463,-1363.0,0
4464,-1353.0,0
4465,-1343.0,0
4466,-1333.0,0
4467,-1325.0,0
4468,-1319.0,0
4469,-1315.0,0
4470,-1311.0,0
4471,-1305.0,0
4472,-1298.0,0
4473,-1291.0,0
4474,-1285.0,0
4475,-1281.0,0
4476,-1280.0,0
4477,-1281.0,0
4478,-1282.0,0
4479,-1283.0,0
4480,-1283.0,0
4481,-1283.0,0
4482,-1282.0,0
4483,-1281.0,0
4484,-1279.0,0
4485,-1277.0,0
4486,-1274.0,0
4487,-1270.0,0
4488,-1265.0,0
4489,-1259.0,0
4490,-1252.0,0
4491,-1244.0,0
4492,-1236.0,0
4493,-1227.0,0
4494,-1219.0,0
4495,-1213.0,0
4496,-1209.0,0
4497,-1206.0,0
4498,-1203.0,0
4499,-1199.0,0
4500,-1194.0,0
4501,-1188.0,0
4502,-1183.0,0
4503,-1181.0,0
4504,-1181.0,0
4505,-1183.0,0
4506,-1185.0,0
4507,-1186.0,0
4508,-1185.0,0
4509,-1183.0,0
4510,-1180.0,0
4511,-1177.0,0
4512,-1174.0,0
4513,-1171.0,0
4514,-1169.0,0
4515,-1168.0,0
4516,-1168.0,0
4517,-1169.0,0
4518,-1171.0,0
4519,-1173.0,0
4520,-1176.0,0
4521,-1180.0,0
4522,-1183.0,0
4523,-1186.0,0
4524,-1188.0,0
4525,-1189.0,0
4526,-1190.0,0
4527,-1192.0,0
4528,-1195.0,0
4529,-1198.0,0
4530,-1201.0,0
4531,-1203.0,0
4532,-1204.0,0
4533,-1205.0,0
4534,-1205.0,0
4535,-1205.0,0
4536,-1205.0,0
4537,-1204.0,0
4538,-1204.0,0
4539,-1204.0,0
4540,-1205.0,0
4541,-1207.0,0
4542,-1208.0,0
4543,-1208.0,0
4544,-1206.0,0
4545,-1203.0,0
4546,-1198.0,0
4547,-1191.0,0
4548,-1182.0,0
4549,-1172.0,0
4550,-1160.0,0
4551,-1148.0,0
4552,-1134.0,0
4553,-1120.0,0
4554,-1106.0,0
4555,-1092.0,0
4556,-1079.0,0
4557,-1066.0,0
4558,-1052.0,0
4559,-1034.0,0
4560,-1014.0,0
4561,-991.0,0
4562,-968.0,0
4563,-947.0,0
4564,-927.0,0
4565,-908.0,0
4566,-889.0,0
4567,-869.0,0
4568,-848.0,0
4569,-826.0,0
4570,-804.0,0
4571,-784.0,0
4572,-765.0,0
4573,-747.0,0
4574,-730.0,0
4575,-712.0,0
4576,-694.0,0
4577,-676.0,0
4578,-658.0,0
4579,-640.0,0
4580,-622.0,0
4581,-604.0,0
4582,-585.0,0
4583,-565.0,0
4584,-543.0,0
4585,-521.0,0
4586,-497.0,0
4587,-471.0,0
4588,-444.0,0
4589,-415.0,0
4590,-386.0,0
4591,-358.0,0
4592,-332.0,0
4593,-307.0,0
4594,-282.0,0
4595,-258.0,0
4596,-235.0,0
4597,-213.0,0
4598,-191.0,0
4599,-170.0,0
4600,-149.0,0
4601,-128.0,0
4602,-108.0,0
4603,-88.0,0
4604,-68.0,0
4605,-48.0,0
4606,-27.0,0
4607,-4.0,0
4608,21.0,0
4609,47.0,0
4610,73.0,0
4611,98.0,0
4612,122.0,0
4613,146.0,0
4614,169.0,0
4615,193.0,0
4616,217.0,0
4617,242.0,0
4618,267.0,0
4619,292.0,0
4620,318.0,0
4621,344.0,0
4622,370.0,0
4623,396.0,0
4624,422.0,0
4625,448.0,0
4626,474.0,0
4627,500.0,0
4628,527.0,0
4629,554.0,0
4630,581.0,0
4631,607.0,0
4632,634.0,0
4633,661.0,0
4634,687.0,0
4635,712.0,0
4636,736.0,0
4637,759.0,0
4638,781.0,0
4639,802.0,0
4640,822.0,0
4641,842.0,0
4642,863.0,0
4643,888.0,0
4644,915.0,0
4645,945.0,0
4646,975.0,0
4647,1005.0,0
4648,1034.0,0
4649,1063.0,0
4650,1090.0,0
4651,1113.0,0
4652,1132.0,0
4653,1148.0,0
4654,1163.0,0
4655,1178.0,0
4656,1193.0,0
4657,1208.0,0
4658,1223.0,0
4659,1238.0,0
4660,1253.0,0
4661,1268.0,0
4662,1281.0,0
4663,1289.0,0
4664,1293.0,0
4665,1293.0,0
4666,1291.0,0
4667,1288.0,0
4668,1283.0,0
4669,1277.0,0
4670,1270.0,0
4671,1264.0,0
4672,1258.0,0
4673,1252.0,0
4674,1246.0,0
4675,1239.0,0
4676,1231.0,0
4677,1222.0,0
4678,1212.0,0
4679,1202.0,0
4680,1191.0,0
4681,1180.0,0
4682,1168.0,0
4683,1154.0,0
4684,1139.0,0
4685,1123.0,0
4686,1106.0,0
4687,1090.0,0
4688,1074.0,0
4689,1058.0,0
4690,1041.0,0
4691,1020.0,0
4692,996.0,0
4693,970.0,0
4694,943.0,0
4695,916.0,0
4696,889.0,0
4697,863.0,0
4698,837.0,0
4699,811.0,0
4700,786.0,0
4701,761.0,0
4702,737.0,0
4703,716.0,0
4704,697.0,0
4705,680.0,0
4706,664.0,0
4707,647.0,0
4708,629.0,0
4709,610.0,0
4710,591.0,0
4711,573.0,0
4712,556.0,0
4713,539.0,0
4714,523.0,0
4715,507.0,0
4716,492.0,0
4717,477.0,0
4718,461.0,0
4719,445.0,0
4720,428.0,0
4721,410.0,0
4722,391.0,0
4723,370.0,0
4724,347.0,0
4725,323.0,0
4726,298.0,0
4727,272.0,0
4728,245.0,0
4729,218.0,0
4730,191.0,0
4731,166.0,0
4732,143.0,0
4733,121.0,0
4734,99.0,0
4735,76.0,0
4736,52.0,0
4737,27.0,0
4738,3.0,0
4739,-19.0,0
4740,-38.0,0
4741,-55.0,0
4742,-71.0,0
4743,-88.0,0
4744,-106.0,0
4745,-124.0,0
4746,-142.0,0
4747,-159.0,0
4748,-176.0,0
4749,-192.0,0
4750,-207.0,0
4751,-222.0,0
4752,-236.0,0
4753,-250.0,0
4754,-264.0,0
4755,-277.0,0
4756,-290.0,0
4757,-303.0,0
4758,-315.0,0
4759,-326.0,0
4760,-336.0,0
4761,-345.0,0
4762,-354.0,0
4763,-364.0,0
4764,-376.0,0
4765,-389.0,0
4766,-402.0,0
4767,-413.0,0
4768,-423.0,0
4769,-432.0,0
4770,-441.0,0
4771,-450.0,0
4772,-459.0,0
4773,-468.0,0
4774,-477.0,0
4775,-485.0,0
4776,-492.0,0
4777,-498.0,0
4778,-505.0,0
4779,-514.0,0
4780,-524.0,0
4781,-536.0,0
4782,-548.0,0
4783,-560.0,0
4784,-572.0,0
4785,-584.0,0
4786,-597.0,0
4787,-612.0,0
4788,-629.0,0
4789,-648.0,0
4790,-667.0,0
4791,-685.0,0
4792,-702.0,0
4793,-718.0,0
4794,-733.0,0
4795,-746.0,0
4796,-758.0,0
4797,-768.0,0
4798,-778.0,0
4799,-789.0,0
4800,-802.0,0
4801,-816.0,0
4802,-829.0,0
4803,-841.0,0
4804,-851.0,0
4805,-860.0,0
4806,-870.0,0
4807,-882.0,0
4808,-897.0,0
4809,-913.0,0
4810,-929.0,0
4811,-943.0,0
4812,-956.0,0
4813,-967.0,0
4814,-977.0,0
4815,-987.0,0
4816,-997.0,0
4817,-1007.0,0
4818,-1015.0,0
4819,-1021.0,0
4820,-1025.0,0
4821,-1027.0,0
4822,-1029.0,0
4823,-1032.0,0
4824,-1036.0,0
4825,-1040.0,0
4826,-1044.0,0
4827,-1046.0,0
4828,-1046.0,0
4829,-1045.0,0
4830,-1043.0,0
4831,-1042.0,0
4832,-1041.0,0
4833,-1040.0,0
4834,-1039.0,0
4835,-1038.0,0
4836,-1037.0,0
4837,-1036.0,0
4838,-1035.0,0
4839,-1034.0,0
4840,-1034.0,0
4841,-1033.0,0
4842,-1034.0,0
4843,-1039.0,0
4844,-1047.0,0
4845,-1057.0,0
4846,-1068.0,0
4847,-1079.0,0
4848,-1089.0,0
4849,-1099.0,0
4850,-1109.0,0
4851,-1118.0,0
4852,-1127.0,0
4853,-1136.0,0
4854,-1145.0,0
4855,-1153.0,0
4856,-1161.0,0
4857,-1169.0,0
4858,-1177.0,0
4859,-1186.0,0
4860,-1196.0,0
4861,-1207.0,0
4862,-1218.0,0
4863,-1228.0,0
4864,-1237.0,0
4865,-1246.0,0
4866,-1254.0,0
4867,-1260.0,0
4868,-1265.0,0
4869,-1269.0,0
4870,-1272.0,0
4871,-1274.0,0
4872,-1275.0,0
4873,-1275.0,0
4874,-1276.0,0
4875,-1279.0,0
4876,-1283.0,0
4877,-1289.0,0
4878,-1295.0,0
4879,-1301.0,0
4880,-1307.0,0
4881,-1313.0,0
4882,-1318.0,0
4883,-1322.0,0
4884,-1324.0,0
4885,-1326.0,0
4886,-1327.0,0
4887,-1327.0,0
4888,-1326.0,0
4889,-1325.0,0
4890,-1322.0,0
4891,-1315.0,0
4892,-1304.0,0
4893,-1291.0,0
4894,-1277.0,0
4895,-1263.0,0
4896,-1249.0,0
4897,-1235.0,0
4898,-1222.0,0
4899,-1211.0,0
4900,-1201.0,0
4901,-1192.0,0
4902,-1184.0,0
4903,-1178.0,0
4904,-1174.0,0
4905,-1172.0,0
4906,-1171.0,0
4907,-1172.0,0
4908,-1175.0,0
4909,-1180.0,0
4910,-1186.0,0
4911,-1192.0,0
4912,-1198.0,0
4913,-1204.0,0
4914,-1208.0,0
4915,-1209.0,0
4916,-1207.0,0
4917,-1202.0,0
4918,-1196.0,0
4919,-1189.0,0
4920,-1182.0,0
4921,-1174.0,0
4922,-1166.0,0
4923,-1159.0,0
4924,-1153.0,0
4925,-1147.0,0
4926,-1141.0,0
4927,-1133.0,0
4928,-1124.0,0
4929,-1113.0,0
4930,-1103.0,0
4931,-1095.0,0
4932,-1090.0,0
4933,-1087.0,0
4934,-1084.0,0
4935,-1080.0,0
4936,-1075.0,0
4937,-1070.0,0
4938,-1065.0,0
4939,-1062.0,0
4940,-1061.0,0
4941,-1061.0,0
4942,-1061.0,0
4943,-1060.0,0
4944,-1058.0,0
4945,-1055.0,0
4946,-1052.0,0
4947,-1049.0,0
4948,-1046.0,0
4949,-1044.0,0
4950,-1042.0,0
4951,-1040.0,0
4952,-1039.0,0
4953,-1038.0,0
4954,-1037.0,0
4955,-1038.0,0
4956,-1040.0,0
4957,-1043.0,0
4958,-1046.0,0
4959,-1050.0,0
4960,-1055.0,0
4961,-1060.0,0
4962,-1065.0,0
4963,-1069.0,0
4964,-1073.0,0
4965,-1076.0,0
4966,-1081.0,0
4967,-1090.0,0
4968,-1102.0,0
4969,-1117.0,0
4970,-1133.0,0
4971,-1148.0,0
4972,-1162.0,0
4973,-1175.0,0
4974,-1187.0,0
4975,-1198.0,0
4976,-1208.0,0
4977,-1218.0,0
4978,-1226.0,0
4979,-1232.0,0
4980,-1235.0,0
4981,-1236.0,0
4982,-1236.0,0
4983,-1237.0,0
4984,-1239.0,0
4985,-1241.0,0
4986,-1243.0,0
4987,-1245.0,0
4988,-1246.0,0
4989,-1246.0,0
4990,-1246.0,0
4991,-1245.0,0
4992,-1244.0,0
4993,-1243.0,0
4994,-1243.0,0
4995,-1246.0,0
4996,-1252.0,0
4997,-1260.0,0
4998,-1268.0,0
4999,-1273.0,0
